X [s]	1 Gast Med [V]	2 T Ant [V]	3 R Fem [V]	4 B Fem [V]	
21.550000	5.548297e-07	-2.198166e-05	7.789503e-06	-1.065578e-06	
21.551000	-4.883331e-07	-2.346010e-05	5.893164e-06	-4.033841e-08	
21.552001	2.463878e-07	-2.264536e-06	5.465474e-06	-1.793537e-06	
21.553001	5.637540e-07	3.095560e-06	5.048572e-06	-2.158516e-06	
21.554001	2.055505e-06	-1.889485e-05	5.465404e-06	-2.146821e-06	
21.555002	4.010684e-06	-3.082840e-05	3.621715e-06	-1.443095e-06	
21.556002	6.722624e-07	-4.204192e-05	1.113791e-06	1.152151e-06	
21.557002	-3.274041e-06	-4.354287e-05	3.149570e-06	-8.838140e-07	
21.558003	-2.520572e-06	-6.147375e-06	4.309287e-06	-3.318810e-06	
21.559003	4.305319e-07	3.453496e-05	4.964290e-06	-8.567811e-07	
21.560003	1.599110e-06	4.131438e-05	3.548974e-06	-3.958549e-07	
21.561004	1.627411e-06	2.943956e-05	-1.028821e-06	1.747013e-07	
21.562004	3.934473e-07	1.893170e-05	-2.248608e-06	2.243804e-06	
21.563004	-1.131654e-06	8.242270e-06	-2.424485e-06	1.024807e-06	
21.564005	-2.586447e-07	6.565270e-08	-3.406277e-06	6.473041e-07	
21.565005	-1.497492e-06	-9.295271e-06	-2.808877e-06	4.830215e-07	
21.566005	-4.014355e-06	-1.777498e-05	-2.730937e-06	-2.312509e-06	
21.567006	-3.630006e-06	-8.109600e-06	-5.006857e-06	-1.213615e-06	
21.568006	-3.412013e-06	6.352712e-06	-6.292372e-06	3.093229e-06	
21.569006	-2.842362e-06	1.236526e-05	-2.748791e-06	2.310367e-06	
21.570007	1.357647e-07	1.131683e-05	-1.536515e-06	1.234396e-06	
21.571007	2.385444e-06	6.975170e-06	-3.042676e-06	2.482518e-06	
21.572007	3.017965e-06	7.011393e-06	1.188557e-07	1.550049e-06	
21.573007	1.487294e-06	8.591970e-06	9.474616e-07	2.099579e-06	
21.574008	-3.274707e-08	8.103777e-06	-7.201383e-08	-5.041197e-07	
21.575008	2.395485e-06	-5.162471e-07	2.652518e-06	-3.837188e-06	
21.576008	2.408717e-06	3.617128e-06	2.582737e-06	3.776301e-07	
21.577009	9.565485e-07	1.817984e-05	-7.532579e-07	1.522602e-06	
21.578009	9.600782e-07	1.856576e-06	-3.011862e-06	-1.021199e-06	
21.579009	-2.971246e-06	-1.162742e-05	-1.689367e-06	2.620844e-07	
21.580010	-3.887061e-06	-1.692374e-05	5.363911e-07	1.139348e-06	
21.581010	-1.309910e-06	-3.304400e-05	-1.407678e-06	-3.472334e-07	
21.582010	-1.075255e-06	-9.747582e-06	-1.596176e-06	-1.173995e-06	
21.583011	1.030698e-06	9.633222e-06	1.570243e-07	-5.999685e-07	
21.584011	2.896717e-06	6.271398e-07	-1.769558e-06	-7.483372e-07	
21.585011	3.510258e-06	1.834203e-05	-1.540268e-06	-1.494928e-06	
21.586012	5.232285e-06	1.618351e-05	6.101886e-07	-1.925191e-06	
21.587012	3.253664e-06	-1.297195e-05	-1.022306e-06	-1.829505e-06	
21.588012	-2.460794e-06	-1.438397e-05	-1.792222e-06	-8.328360e-08	
21.589013	-4.575131e-06	8.171276e-06	2.547069e-07	6.972558e-07	
21.590013	-4.919577e-06	1.908499e-05	9.764669e-07	-1.496653e-06	
21.591013	-4.853491e-06	-1.583382e-07	1.674900e-06	-2.982601e-06	
21.592014	-3.609310e-07	-4.098557e-06	2.040742e-06	-1.423358e-06	
21.593014	1.756751e-07	6.132311e-06	8.115229e-07	-9.814956e-07	
21.594014	-1.647611e-07	-8.402832e-06	2.259545e-06	-1.310592e-06	
21.595015	2.343504e-06	-1.469881e-05	5.219327e-06	3.387307e-06	
21.596015	-1.749611e-06	1.196087e-07	6.149746e-06	7.662460e-06	
21.597015	-1.949053e-06	-1.353890e-06	4.533780e-06	4.887177e-06	
21.598016	5.896233e-07	-9.581136e-06	1.756420e-06	-2.273350e-07	
21.599016	-3.861535e-06	-4.520156e-06	5.349872e-07	-1.979938e-06	
21.600016	-5.373681e-06	-1.972046e-05	1.266738e-07	8.920163e-07	
21.601017	-4.741528e-07	-2.404134e-05	4.093384e-06	3.470162e-06	
21.602017	7.509832e-06	4.657847e-06	8.242790e-06	-3.607057e-07	
21.603017	1.021614e-05	3.075502e-05	2.689699e-06	-6.262394e-06	
21.604018	6.192483e-06	6.879022e-05	-2.603759e-06	-5.470878e-06	
21.605018	5.281149e-06	7.214299e-05	-4.329246e-06	2.090471e-07	
21.606018	9.629760e-06	3.683577e-05	-6.413652e-06	2.877819e-06	
21.607019	1.003071e-05	7.210573e-06	-3.654656e-06	-1.295326e-07	
21.608019	1.338599e-06	-5.805114e-05	-3.716982e-06	-3.094286e-06	
21.609019	-3.019082e-06	-1.015324e-04	-6.534082e-06	2.552487e-07	
21.610020	-3.232242e-06	-7.024135e-05	-2.548916e-06	1.916554e-06	
21.611020	-6.850038e-06	-3.404268e-05	2.332429e-06	-2.278842e-06	
21.612020	-7.863106e-06	-1.497047e-05	3.584237e-06	-1.934583e-06	
21.613020	-7.133533e-06	1.669662e-06	1.065373e-06	5.905015e-07	
21.614021	-5.245833e-06	1.872453e-05	-1.338707e-06	1.853663e-06	
21.615021	-4.819728e-06	3.162759e-05	-6.612212e-08	4.341941e-06	
21.616021	-4.296055e-06	2.542569e-05	-5.037446e-08	2.795493e-06	
21.617022	9.580153e-08	1.063374e-05	-1.021854e-06	2.764724e-06	
21.618022	-4.793273e-07	6.249156e-06	-3.318528e-06	4.845004e-06	
21.619022	-2.224958e-06	6.895566e-06	-5.433661e-06	-6.355473e-07	
21.620023	-5.313544e-07	6.525207e-06	-3.148703e-06	-3.153934e-06	
21.621023	-1.178544e-06	6.156355e-06	-3.720945e-06	4.642823e-07	
21.622023	-7.051296e-07	1.563593e-06	-6.627234e-06	-2.222424e-06	
21.623024	8.121879e-07	-2.356700e-06	-3.047339e-06	-4.503397e-06	
21.624024	5.575040e-07	-1.741605e-06	-4.669398e-07	-2.122398e-06	
21.625024	1.220706e-06	-3.425418e-06	-4.854256e-06	-1.469113e-06	
21.626025	1.129155e-06	3.972419e-07	-1.702308e-06	1.533692e-06	
21.627025	-8.541834e-07	1.008643e-05	8.306892e-06	1.979023e-06	
21.628025	-2.494613e-06	1.070542e-05	1.059862e-05	-1.220864e-06	
21.629026	-1.142157e-06	7.812560e-06	1.052133e-05	1.855127e-06	
21.630026	2.848899e-06	1.613733e-05	1.019595e-05	3.415960e-06	
21.631026	3.517499e-06	4.670537e-05	4.915833e-06	3.275041e-07	
21.632027	2.315602e-06	8.890743e-05	-1.400991e-06	1.901749e-07	
21.633027	2.148951e-06	9.622728e-05	-2.299980e-06	1.517684e-06	
21.634027	7.066414e-07	3.543822e-05	1.854827e-06	1.027722e-06	
21.635028	3.698488e-06	-5.739966e-05	3.065688e-06	-2.426345e-06	
21.636028	8.825319e-06	-1.057160e-04	-1.574514e-07	-4.253045e-06	
21.637028	7.951280e-06	-1.112516e-04	-5.403699e-06	-2.227935e-06	
21.638029	3.112424e-06	-1.168812e-04	-2.556235e-06	-2.474329e-06	
21.639029	-4.558426e-06	-8.584612e-05	3.760132e-06	-1.305627e-06	
21.640029	-5.790588e-06	-1.710865e-05	-1.406835e-06	3.330341e-06	
21.641030	5.224257e-07	2.095078e-05	-4.261276e-06	1.801914e-06	
21.642030	-2.411995e-07	2.452566e-05	-3.656724e-06	-1.891264e-06	
21.643030	-1.586297e-06	1.628436e-05	-5.233450e-06	8.258100e-07	
21.644031	1.258624e-07	5.440346e-06	-2.004208e-06	3.240948e-06	
21.645031	-2.013487e-06	8.873977e-06	-4.001465e-07	-5.948797e-07	
21.646031	-1.102289e-06	1.620009e-05	5.062714e-07	-2.142495e-06	
21.647032	-1.721587e-06	1.548293e-05	1.986033e-06	1.331833e-06	
21.648032	-5.206117e-06	1.579321e-05	1.252760e-06	-6.788947e-07	
21.649032	-3.287338e-06	1.726202e-05	1.312778e-06	-2.587313e-06	
21.650033	-2.597608e-06	1.651053e-05	-7.650877e-07	8.843925e-07	
21.651033	-1.913631e-06	1.832718e-05	-1.229501e-06	-3.159433e-07	
21.652033	6.196464e-07	1.760656e-05	4.640365e-07	-3.029119e-06	
21.653034	-2.542894e-07	1.272552e-05	-4.751968e-07	-2.356229e-06	
21.654034	-6.122303e-07	2.407196e-05	2.025313e-06	-9.989734e-07	
21.655034	-5.209147e-07	3.747186e-05	7.311435e-07	7.732744e-07	
21.656034	1.068486e-06	1.990659e-05	-5.210921e-06	1.584684e-06	
21.657035	5.691085e-06	-1.512941e-05	1.359728e-06	1.314788e-06	
21.658035	5.653662e-06	-2.369102e-05	7.694079e-06	5.858576e-07	
21.659035	3.648026e-06	-1.389953e-06	4.623160e-06	1.034792e-06	
21.660036	3.542701e-06	-2.690716e-06	5.794813e-06	1.912793e-06	
21.661036	9.805505e-07	-7.347543e-06	3.063629e-06	1.731484e-06	
21.662036	-3.601676e-08	1.163705e-05	-3.552787e-06	1.495387e-06	
21.663037	9.444614e-07	9.174426e-06	-3.404560e-06	2.539057e-07	
21.664037	1.789542e-06	2.277069e-05	-4.126038e-06	4.709878e-07	
21.665037	2.057733e-06	3.816313e-05	-2.577982e-06	3.634262e-07	
21.666038	-2.536055e-06	-1.334465e-05	2.016780e-06	-7.222159e-08	
21.667038	-5.198092e-06	-6.073258e-05	-5.395132e-07	2.323040e-06	
21.668038	-1.932641e-06	-5.297856e-05	-3.000404e-06	2.991303e-06	
21.669039	-3.101440e-07	-2.701875e-05	-3.270675e-07	3.384402e-06	
21.670039	-2.410937e-06	-1.260875e-05	-6.865356e-07	2.817866e-07	
21.671039	-3.809421e-06	-1.273737e-05	-5.465136e-06	-5.295620e-06	
21.672040	-2.605526e-06	-6.268129e-06	-4.465876e-06	-4.592955e-06	
21.673040	-2.786619e-06	3.243291e-06	1.343786e-06	-3.778574e-06	
21.674040	-3.055060e-06	3.161496e-06	1.519799e-07	-1.246456e-06	
21.675041	-2.019275e-06	2.313184e-06	-8.907823e-07	3.078539e-06	
21.676041	-1.469340e-06	4.335563e-06	3.379450e-06	6.136929e-07	
21.677041	3.100009e-07	5.817873e-06	3.222331e-06	-1.483780e-06	
21.678042	-2.033493e-07	3.913509e-06	-1.140191e-06	-3.402179e-07	
21.679042	-6.660492e-07	1.970973e-06	-1.870370e-06	-1.168226e-06	
21.680042	3.763930e-06	4.118289e-06	-1.384006e-07	-1.643115e-06	
21.681043	3.584472e-06	5.636476e-06	-2.874811e-06	-2.794674e-07	
21.682043	-9.812484e-08	4.351125e-06	-4.143317e-06	1.455379e-06	
21.683043	4.974570e-07	2.712444e-06	1.258327e-06	2.429089e-06	
21.684044	-2.765712e-07	3.020972e-06	4.235226e-06	1.453178e-06	
21.685044	-1.168908e-06	5.973701e-06	1.676518e-06	-1.111209e-07	
21.686044	1.771329e-06	6.810370e-06	2.119609e-07	-6.184545e-07	
21.687045	2.271922e-06	6.229009e-06	5.812121e-07	7.998188e-07	
21.688045	-3.685772e-07	8.159633e-06	-4.163217e-07	2.743002e-06	
21.689045	-2.404663e-07	7.925602e-06	1.496042e-06	3.143289e-06	
21.690046	9.422123e-07	7.398621e-06	4.128044e-06	3.058972e-06	
21.691046	1.628459e-06	8.981734e-06	2.021938e-07	-1.249515e-06	
21.692046	3.419756e-06	1.372472e-06	-3.064938e-06	-4.721626e-06	
21.693047	2.530216e-06	-1.589475e-05	2.475472e-07	-1.063311e-06	
21.694047	-5.569181e-07	-2.659121e-05	4.652037e-06	-9.263641e-07	
21.695047	-1.849585e-06	-3.251551e-05	4.668474e-06	-3.729887e-06	
21.696047	9.001055e-07	-3.427923e-05	1.385760e-06	-5.651557e-06	
21.697048	4.587471e-06	2.568346e-06	1.504631e-06	-4.212314e-06	
21.698048	4.924307e-06	5.120307e-05	2.859326e-06	3.937067e-06	
21.699048	4.021299e-06	3.968061e-05	1.224726e-06	5.776231e-06	
21.700049	-1.301707e-07	6.251230e-06	-2.770609e-07	4.171661e-06	
21.701049	-3.663818e-06	4.685548e-06	-2.651849e-06	4.508917e-06	
21.702049	-5.904360e-07	3.955879e-06	-3.746424e-06	-4.454941e-08	
21.703050	5.785898e-07	-6.219057e-06	-2.792028e-06	-1.480986e-06	
21.704050	-1.603908e-06	-5.591027e-06	-3.587938e-06	-2.659381e-06	
21.705050	-9.421026e-07	-6.644344e-07	-2.617742e-06	-4.752686e-06	
21.706051	-1.188129e-06	-2.974079e-06	1.377468e-07	-5.572842e-07	
21.707051	-4.332492e-06	-5.088908e-06	1.762958e-06	-1.492295e-06	
21.708051	-3.780422e-06	-6.837052e-06	1.442780e-06	-4.382458e-06	
21.709052	-1.267750e-06	-8.563783e-06	-1.124735e-06	1.170576e-08	
21.710052	-3.118089e-06	-1.710431e-06	-2.016598e-06	1.129105e-06	
21.711052	-2.455575e-06	1.324933e-06	-7.902662e-07	-2.980870e-06	
21.712053	-1.302268e-06	-8.538151e-07	-1.345809e-06	-3.344471e-06	
21.713053	-5.494213e-06	2.498824e-07	-3.474893e-06	-5.196680e-07	
21.714053	-4.844214e-06	-1.888728e-06	-4.011558e-06	-8.360219e-07	
21.715054	-1.140910e-06	-1.233796e-06	-1.560934e-06	-3.952271e-07	
21.716054	2.052436e-06	-2.703555e-07	1.160701e-06	3.255335e-06	
21.717054	3.950236e-06	1.408354e-06	1.579006e-06	4.147407e-06	
21.718055	1.053278e-06	1.243481e-05	1.325927e-06	3.408237e-06	
21.719055	7.134743e-07	1.805609e-05	6.961203e-07	3.099958e-06	
21.720055	-8.410734e-07	2.004149e-05	1.102640e-06	3.997084e-06	
21.721056	-3.417415e-06	1.057243e-05	2.623273e-06	6.184045e-06	
21.722056	-3.821365e-06	-1.636254e-05	1.565713e-06	4.659437e-06	
21.723056	-3.274022e-06	-1.625639e-05	6.836647e-07	1.898795e-06	
21.724057	9.637370e-06	-8.806025e-06	1.292217e-06	2.636061e-06	
21.725057	1.591235e-05	-2.920824e-05	3.888552e-06	3.359432e-06	
21.726057	3.763574e-06	-2.690414e-05	7.176562e-06	2.063179e-06	
21.727058	-1.460193e-07	-2.421467e-06	3.911824e-06	1.069427e-06	
21.728058	1.258649e-06	1.935076e-07	9.672544e-08	-5.521659e-07	
21.729058	-1.142451e-06	-6.587152e-06	4.387939e-07	-3.645561e-06	
21.730059	-1.680237e-06	-2.951601e-06	-1.567478e-06	-3.365050e-06	
21.731059	-4.103941e-06	6.147019e-06	-3.667265e-06	-4.193886e-06	
21.732059	-3.431006e-06	9.770954e-06	-4.054376e-06	-8.565397e-06	
21.733060	2.734499e-06	5.496863e-06	-3.487415e-06	-5.607658e-06	
21.734060	3.113270e-06	4.906388e-07	-1.279048e-06	-5.661356e-07	
21.735060	6.816718e-07	-9.872220e-07	-1.790728e-06	-1.868884e-06	
21.736061	3.564678e-06	-3.252872e-08	-2.470613e-06	-2.722113e-06	
21.737061	4.402119e-06	6.591063e-06	-6.781959e-07	-1.816699e-06	
21.738061	4.109002e-06	1.386325e-05	-1.527856e-06	-1.757048e-06	
21.739061	3.932413e-06	9.447753e-06	-9.947516e-07	-9.250180e-07	
21.740062	-1.033223e-06	4.264638e-06	2.841837e-06	-7.181213e-07	
21.741062	-3.547295e-07	5.893166e-06	3.441209e-06	-1.209358e-06	
21.742062	-8.952215e-07	6.515023e-06	1.228148e-06	1.306623e-06	
21.743063	-8.626111e-06	6.780689e-06	-8.705551e-07	2.287693e-06	
21.744063	-5.995012e-06	2.912934e-06	-2.663023e-06	5.483674e-07	
21.745063	-4.547650e-07	-2.242469e-06	-5.151583e-06	1.500680e-06	
21.746064	2.872284e-06	-2.186929e-06	-4.704723e-06	1.030387e-06	
21.747064	8.876287e-06	1.024420e-07	2.809418e-07	-1.220646e-06	
21.748064	4.149286e-06	-4.428840e-06	-1.469788e-07	-2.239731e-06	
21.749065	-1.527458e-06	-1.651171e-05	-3.852144e-06	-2.070202e-06	
21.750065	3.002622e-06	-2.107722e-05	-2.066462e-06	1.497683e-07	
21.751065	2.645218e-06	-3.105822e-05	-7.045253e-07	1.921846e-06	
21.752066	3.954704e-06	-1.647133e-05	1.760727e-06	4.932031e-06	
21.753066	9.975106e-06	3.774363e-05	6.631132e-06	6.225979e-06	
21.754066	5.044450e-06	3.500689e-05	4.669806e-06	2.120113e-06	
21.755067	1.777762e-06	8.576755e-06	1.550648e-06	6.085106e-07	
21.756067	3.131106e-06	2.698056e-05	2.069676e-06	2.649617e-06	
21.757067	-1.830868e-06	1.909489e-05	2.042155e-06	2.048563e-06	
21.758068	-5.045704e-06	-8.836571e-07	2.309477e-06	-1.728963e-06	
21.759068	-1.964831e-05	1.587478e-06	1.238417e-06	-1.893595e-06	
21.760068	-4.392430e-05	-5.251993e-06	1.090605e-06	-2.669011e-07	
21.761069	-4.766882e-05	-1.070031e-05	2.648151e-06	-1.021297e-07	
21.762069	-3.821837e-05	-1.263196e-05	1.781912e-06	4.089044e-06	
21.763069	-3.455052e-05	-1.752362e-05	2.811529e-06	3.110495e-06	
21.764070	-3.695931e-05	-1.582107e-05	4.268860e-06	-9.587313e-07	
21.765070	-1.027058e-05	-1.187985e-05	7.290459e-07	2.833793e-06	
21.766070	5.007514e-05	-9.902984e-06	-1.996700e-07	2.174899e-06	
21.767071	5.162304e-05	-7.158082e-06	2.092321e-06	-3.902423e-06	
21.768071	7.372868e-06	-6.056007e-07	-4.166533e-07	-5.796459e-06	
21.769071	-3.315829e-06	3.194969e-06	-1.010137e-06	-5.643593e-06	
21.770072	-2.465305e-05	3.764712e-06	1.707303e-06	-3.834824e-06	
21.771072	-2.756953e-05	3.544370e-06	-2.093376e-06	-1.815552e-06	
21.772072	3.255695e-05	2.227895e-06	-5.898817e-06	-1.805472e-06	
21.773073	6.784185e-05	8.394713e-06	-4.573446e-06	-5.780306e-07	
21.774073	5.873294e-05	-1.040524e-06	-5.489480e-06	5.926310e-07	
21.775073	4.929663e-05	-1.783187e-05	-5.449087e-06	8.100385e-07	
21.776074	5.041449e-05	-8.636616e-06	-2.813480e-06	1.009717e-06	
21.777074	4.964349e-05	-1.061846e-05	-2.158967e-06	4.475182e-07	
21.778074	3.200530e-05	2.552554e-06	5.394209e-07	3.838611e-07	
21.779074	1.301697e-05	5.638909e-05	1.900652e-06	-1.391306e-07	
21.780075	-2.198149e-06	5.068768e-05	-4.222959e-07	7.445555e-07	
21.781075	-1.762878e-05	-9.373130e-06	-6.566287e-08	1.595072e-06	
21.782075	-2.772325e-05	-3.142248e-05	-2.222687e-06	2.199640e-06	
21.783076	-3.091043e-05	-1.678158e-05	-3.801500e-06	3.186336e-06	
21.784076	-2.961650e-05	4.900470e-06	2.613116e-07	-2.656429e-06	
21.785076	-2.913427e-05	9.439694e-06	-8.321242e-08	-5.220228e-06	
21.786077	-2.549000e-05	-6.874537e-06	-1.357878e-06	-6.621648e-07	
21.787077	-2.329560e-05	-1.298763e-05	1.297411e-06	4.252851e-07	
21.788077	-2.416752e-05	-7.103461e-06	2.251300e-06	1.742919e-06	
21.789078	-2.028597e-05	-3.007763e-06	8.467159e-07	3.746870e-06	
21.790078	-1.517635e-05	-1.777258e-06	5.056969e-08	3.975498e-06	
21.791078	-9.345787e-06	-4.925029e-06	3.346756e-06	1.657620e-06	
21.792079	-7.057977e-06	-2.519668e-06	4.324561e-06	-4.899585e-07	
21.793079	-8.423600e-06	1.639273e-06	1.053018e-06	-4.480596e-07	
21.794079	-8.542614e-06	-1.832029e-06	1.034227e-06	-1.763210e-06	
21.795080	-6.268904e-06	2.128943e-06	-1.227650e-07	-8.411556e-07	
21.796080	-2.752962e-06	8.086367e-06	-2.920287e-07	-3.663252e-07	
21.797080	-1.030592e-05	4.583567e-06	3.207735e-06	1.697011e-06	
21.798081	-1.994108e-05	3.445572e-06	2.141469e-06	4.607971e-06	
21.799081	-1.620283e-05	5.036723e-06	1.233268e-06	-1.511861e-06	
21.800081	-9.033957e-06	3.207699e-06	8.954888e-07	-4.333985e-06	
21.801082	-6.158125e-06	2.044701e-06	-1.979993e-06	-1.553577e-06	
21.802082	6.199138e-06	4.646863e-06	-2.049790e-06	-5.267250e-07	
21.803082	3.102886e-05	5.797134e-06	-1.868301e-06	6.361980e-07	
21.804083	2.889485e-05	3.948856e-06	1.884957e-07	-8.716682e-07	
21.805083	8.144933e-06	2.055350e-06	2.845517e-06	-2.207087e-06	
21.806083	1.999971e-05	-1.880367e-06	1.679375e-06	-3.249638e-06	
21.807084	3.850651e-05	-4.816078e-06	2.687545e-06	-1.458763e-06	
21.808084	3.152881e-05	-4.222645e-06	3.636183e-06	2.270502e-06	
21.809084	1.921260e-05	-2.150153e-06	1.236372e-06	2.757084e-07	
21.810085	1.058692e-05	1.582594e-06	-1.524797e-06	7.046765e-07	
21.811085	5.086856e-06	2.691620e-06	-2.406916e-06	3.907395e-06	
21.812085	1.140292e-06	-1.175450e-06	-1.006984e-06	2.238277e-06	
21.813086	-4.453731e-06	-1.762158e-06	-1.764080e-06	-1.316880e-06	
21.814086	-6.801844e-06	4.785180e-06	-3.428090e-06	-1.471678e-06	
21.815086	-5.523241e-06	1.891282e-06	-1.832514e-06	-1.082406e-07	
21.816087	-3.620458e-06	-8.194883e-06	-8.487524e-07	-1.516897e-06	
21.817087	-1.105220e-06	-1.743729e-07	-3.571141e-06	-1.409025e-06	
21.818087	3.176268e-07	3.545281e-06	-7.978263e-06	-1.772608e-06	
21.819088	-1.119261e-06	-1.492930e-05	-9.845910e-06	-3.261951e-06	
21.820088	-2.896970e-06	-2.404682e-05	-2.052859e-06	-6.095190e-07	
21.821088	-1.942202e-06	-1.906880e-05	8.424914e-06	1.227887e-06	
21.822088	-1.216993e-06	-1.066649e-05	8.599151e-06	5.126588e-07	
21.823089	-5.553708e-06	-6.995030e-06	6.181872e-06	-2.304240e-07	
21.824089	-1.154181e-05	-9.787349e-06	4.476403e-06	-7.463630e-08	
21.825089	-1.353703e-05	9.531476e-08	4.825996e-07	-8.137916e-08	
21.826090	-1.257329e-05	1.142798e-05	-3.519866e-07	-1.915170e-06	
21.827090	-8.727603e-06	1.207832e-05	-7.930847e-07	-1.561076e-06	
21.828090	-6.437030e-06	1.484085e-05	-1.295351e-06	6.358083e-07	
21.829091	-8.350430e-06	1.690810e-05	-2.299659e-07	2.582692e-06	
21.830091	-5.725965e-06	1.344070e-05	-1.827023e-06	5.598050e-06	
21.831091	6.581317e-07	1.001371e-05	-3.002128e-06	5.715350e-06	
21.832092	3.710676e-06	1.184739e-05	-6.932125e-07	3.074405e-06	
21.833092	2.202743e-06	9.469833e-06	2.461647e-06	3.941864e-06	
21.834092	3.585998e-07	7.720499e-06	2.434378e-06	5.598834e-06	
21.835093	7.764519e-07	2.005151e-05	-3.237326e-07	5.409103e-06	
21.836093	1.795577e-06	2.656506e-05	7.150606e-07	7.395260e-06	
21.837093	5.668991e-06	5.816941e-06	2.983263e-06	4.604652e-06	
21.838094	6.307192e-06	-3.061621e-05	1.383011e-06	-1.970891e-06	
21.839094	2.677244e-06	-3.533937e-05	-1.285404e-07	-5.498484e-07	
21.840094	3.781319e-06	-1.284196e-05	-5.230090e-07	-5.794105e-06	
21.841095	5.138224e-06	-1.276079e-05	-6.713558e-07	-1.871848e-05	
21.842095	3.947007e-06	-1.583706e-05	-1.192290e-06	-1.440254e-05	
21.843095	1.825470e-06	-8.126433e-06	-3.565515e-06	-3.383913e-06	
21.844096	6.467420e-07	-4.311505e-06	-6.401880e-06	-3.007196e-06	
21.845096	2.134324e-06	4.739197e-07	-1.032853e-05	-1.413483e-06	
21.846096	1.655959e-07	4.414133e-06	-8.724725e-06	1.940442e-06	
21.847097	-1.061136e-06	1.429674e-05	1.433429e-06	-2.502644e-06	
21.848097	2.162143e-06	1.772370e-05	8.025711e-06	-4.412373e-06	
21.849097	2.004816e-06	3.294608e-06	9.408216e-06	6.678205e-07	
21.850098	-5.005504e-07	-1.607923e-06	6.424621e-06	4.360125e-06	
21.851098	-1.744258e-06	2.710987e-06	1.308831e-06	6.480931e-06	
21.852098	-6.391565e-07	1.627289e-06	2.216572e-06	3.912350e-06	
21.853099	5.910605e-07	1.275571e-09	1.957597e-06	3.265369e-07	
21.854099	-1.321194e-06	-2.522996e-06	-2.099268e-06	1.605926e-06	
21.855099	-2.399774e-06	-3.599296e-06	-2.005164e-06	-1.542166e-06	
21.856100	-2.759473e-06	-1.786819e-06	4.784322e-08	-4.955951e-06	
21.857100	-3.695876e-06	-1.760649e-06	8.899779e-07	7.752594e-08	
21.858100	-2.588129e-06	-6.246583e-07	1.939479e-06	6.682045e-06	
21.859101	3.500111e-07	-1.127322e-06	2.470348e-06	1.233740e-05	
21.860101	2.724147e-06	-3.752350e-06	1.583758e-06	1.391474e-05	
21.861101	-3.816770e-07	8.509620e-08	-1.316880e-07	1.104144e-05	
21.862101	-5.820183e-06	1.437861e-06	-1.109690e-06	1.198103e-05	
21.863102	-3.131476e-06	-3.373797e-06	-7.320033e-07	1.116503e-05	
21.864102	2.833277e-06	-2.370636e-06	-1.238365e-06	-3.381640e-06	
21.865102	1.872181e-06	6.784815e-07	-9.429233e-07	-2.552415e-05	
21.866103	1.374493e-06	1.604340e-07	2.402471e-07	-3.109511e-05	
21.867103	5.259862e-06	6.083618e-07	-5.808709e-07	-2.149755e-05	
21.868103	5.727776e-06	1.282869e-06	-1.839907e-06	-1.823348e-05	
21.869104	3.454026e-06	-4.758506e-07	-3.323322e-06	-1.168224e-05	
21.870104	1.161784e-08	-2.210468e-06	-3.420303e-06	-7.015764e-07	
21.871104	-6.454087e-07	-5.169261e-06	-3.093975e-06	1.212872e-06	
21.872105	3.377927e-06	-7.962991e-06	-3.132811e-06	3.829743e-07	
21.873105	1.169701e-06	-6.437329e-06	2.610662e-07	-9.879145e-08	
21.874105	-3.594889e-06	-3.264864e-06	1.621008e-06	6.547664e-08	
21.875106	-3.956322e-06	1.479155e-06	2.210630e-07	3.858969e-07	
21.876106	-4.498786e-06	5.268889e-06	2.232621e-06	1.472812e-06	
21.877106	-2.995369e-06	7.859513e-06	4.998717e-06	5.124989e-06	
21.878107	-2.496912e-06	9.876910e-06	5.766863e-06	7.570432e-06	
21.879107	-3.722489e-06	7.704400e-06	2.324684e-06	8.589111e-06	
21.880107	-1.616339e-06	6.207575e-06	-2.202853e-06	6.857252e-06	
21.881108	-9.949098e-07	6.494759e-06	-1.802317e-06	1.432035e-05	
21.882108	3.707991e-07	4.077134e-06	-1.553884e-06	3.041867e-05	
21.883108	3.670958e-06	-1.492257e-06	-9.458822e-07	3.308306e-05	
21.884109	2.190793e-06	-3.220302e-06	1.765930e-06	3.079153e-05	
21.885109	3.751967e-07	-2.267772e-06	7.980077e-07	2.565020e-05	
21.886109	-1.015447e-06	-7.578214e-06	4.111823e-07	1.424912e-05	
21.887110	-4.770983e-06	-1.326101e-05	1.665951e-06	1.071984e-05	
21.888110	-3.882513e-06	-1.597078e-05	7.049966e-07	3.151756e-06	
21.889110	1.165959e-07	-1.395538e-05	6.164125e-07	-7.338881e-06	
21.890111	2.187946e-06	1.209823e-06	-1.540263e-06	-1.731817e-05	
21.891111	3.112651e-06	2.195988e-05	-4.079126e-06	-4.325754e-05	
21.892111	9.412526e-07	2.381832e-05	-4.813960e-07	-5.196350e-05	
21.893112	-5.368686e-07	1.034466e-05	-4.396416e-07	-3.107574e-05	
21.894112	1.140357e-06	9.939937e-06	-3.207195e-06	-1.935706e-05	
21.895112	3.834334e-08	1.433822e-05	7.825626e-07	-1.116313e-05	
21.896113	-1.237972e-06	7.156795e-06	1.988351e-06	-5.303304e-06	
21.897113	8.109042e-07	7.488991e-07	4.319603e-07	-1.298158e-05	
21.898113	2.562295e-06	-6.020783e-07	1.525911e-06	-6.950184e-06	
21.899114	3.966609e-06	-6.575869e-06	-1.086871e-06	1.089223e-05	
21.900114	2.194567e-06	-1.052392e-05	-3.678786e-06	1.786781e-05	
21.901114	4.447149e-07	-6.354571e-06	-1.009640e-06	1.248610e-05	
21.902115	6.477322e-06	-5.747578e-06	3.498348e-07	6.888636e-06	
21.903115	8.854717e-06	-6.961971e-06	-2.048242e-06	8.293783e-06	
21.904115	3.501033e-06	-8.454260e-06	-2.502455e-06	-1.370785e-05	
21.905115	1.585771e-06	-9.029973e-06	-1.635851e-06	-3.949849e-05	
21.906116	2.281459e-06	-3.949802e-06	-7.443946e-07	-2.073186e-05	
21.907116	2.288140e-06	-6.928712e-06	2.087359e-07	2.669283e-06	
21.908116	2.183201e-06	-1.188229e-05	-4.639075e-07	6.817288e-06	
21.909117	1.579559e-06	-7.325153e-06	1.932393e-06	1.124719e-05	
21.910117	-4.895464e-07	-3.079030e-06	4.719718e-06	8.099675e-06	
21.911117	-2.094776e-06	-1.688664e-06	3.010887e-06	2.902742e-06	
21.912118	-3.612422e-06	-5.072643e-06	2.996429e-06	6.253403e-06	
21.913118	-1.296509e-05	-6.755125e-06	4.989850e-06	7.704222e-06	
21.914118	-1.950765e-05	2.427793e-06	2.889664e-06	4.727085e-06	
21.915119	-1.122406e-05	9.711934e-06	-5.714779e-07	6.437857e-06	
21.916119	-6.736352e-06	9.409878e-06	1.512383e-07	7.732949e-06	
21.917119	-8.367703e-06	9.196480e-06	1.146065e-06	2.678961e-06	
21.918120	-2.807994e-06	7.192567e-06	2.131715e-07	4.373697e-06	
21.919120	-9.627383e-08	5.178058e-06	9.298470e-08	8.025395e-06	
21.920120	-1.056055e-06	8.771970e-06	3.699164e-07	1.989225e-06	
21.921121	2.516309e-06	1.007083e-05	7.137450e-07	-1.757218e-06	
21.922121	6.497174e-06	4.383199e-06	-1.519331e-06	1.321913e-06	
21.923121	6.505787e-06	2.353224e-08	-4.999755e-06	7.246505e-06	
21.924122	3.452355e-06	-6.500880e-08	-4.054031e-06	1.718155e-05	
21.925122	6.720489e-06	-2.215200e-06	-2.456893e-06	3.022497e-05	
21.926122	1.026589e-05	-4.640481e-06	-2.296985e-06	3.951311e-05	
21.927123	4.290020e-06	-2.423157e-06	-1.314171e-06	3.878156e-05	
21.928123	3.678749e-06	-1.381079e-06	-9.350998e-07	3.251600e-05	
21.929123	5.478094e-06	-2.998998e-06	1.597474e-06	2.825148e-05	
21.930124	1.327340e-06	-4.527780e-06	3.123286e-06	2.333099e-05	
21.931124	3.005488e-06	-2.682145e-06	3.872159e-07	7.154020e-06	
21.932124	1.699457e-06	1.626623e-06	5.825912e-07	-7.887328e-06	
21.933125	-4.764050e-06	2.178873e-06	1.162580e-06	-1.333080e-05	
21.934125	-4.581483e-06	3.653205e-06	1.205156e-06	-2.559179e-05	
21.935125	-5.766722e-06	2.497160e-06	2.762483e-06	-3.769829e-05	
21.936126	-4.040381e-06	-9.013859e-07	-1.364166e-06	-6.018204e-05	
21.937126	3.489682e-06	2.026728e-06	-5.836524e-06	-9.401935e-05	
21.938126	5.467461e-06	-1.344229e-06	-3.830994e-06	-9.271234e-05	
21.939127	4.761072e-06	-6.004695e-06	-1.253753e-06	-6.726116e-05	
21.940127	3.437178e-06	4.637453e-07	-1.086909e-06	-4.156630e-05	
21.941127	-8.890935e-07	4.578643e-06	-1.166008e-06	-1.046844e-05	
21.942128	-8.664657e-06	2.691225e-06	-1.521958e-07	7.441768e-06	
21.943128	-1.406834e-05	1.575219e-06	1.397351e-07	1.538895e-05	
21.944128	-9.893556e-06	3.985175e-06	1.143906e-06	2.239901e-05	
21.945128	-4.467846e-06	7.077508e-06	4.424755e-06	2.280333e-05	
21.946129	-3.134047e-06	3.197830e-06	5.900312e-06	2.270510e-05	
21.947129	-7.758892e-07	-2.806614e-06	2.194680e-06	2.165512e-05	
21.948129	1.914047e-06	-2.214948e-06	-2.336449e-06	2.209041e-05	
21.949130	3.074764e-06	5.475376e-06	-1.157158e-06	2.243533e-05	
21.950130	3.100114e-06	1.273560e-05	1.259238e-06	1.690467e-05	
21.951130	2.597156e-06	5.605294e-06	1.858880e-06	1.682608e-05	
21.952131	4.992661e-06	-5.338015e-06	2.033013e-06	2.126661e-05	
21.953131	7.149417e-06	-1.165175e-05	1.825261e-06	1.765069e-05	
21.954131	3.823087e-06	-2.998192e-05	1.800391e-06	1.143715e-05	
21.955132	1.877060e-06	-3.295305e-05	-6.900936e-07	1.041465e-05	
21.956132	6.022711e-06	-8.367258e-06	-7.439140e-07	1.302489e-05	
21.957132	9.609158e-06	-4.934506e-06	1.099102e-06	1.908468e-05	
21.958133	1.104844e-05	-1.164584e-05	-1.128367e-06	2.037042e-05	
21.959133	1.459268e-05	5.229745e-06	-1.882331e-06	1.577186e-05	
21.960133	1.755439e-05	1.912466e-05	-1.274740e-06	1.733989e-05	
21.961134	1.830442e-05	1.884291e-05	-2.179467e-06	1.841216e-05	
21.962134	1.691194e-05	1.735779e-05	-3.066738e-06	1.065786e-05	
21.963134	9.882733e-06	9.370393e-06	-1.674959e-06	-5.199308e-06	
21.964135	-3.206414e-06	9.254244e-07	8.964339e-07	-2.294534e-05	
21.965135	-1.578597e-05	9.927079e-07	7.057914e-07	-2.679758e-05	
21.966135	-2.506617e-05	1.493600e-06	9.044405e-07	-1.784944e-05	
21.967136	-4.292919e-05	2.317477e-06	6.064217e-07	-6.899835e-06	
21.968136	-5.729138e-05	6.383432e-06	-9.761662e-07	-7.243963e-06	
21.969136	-5.149471e-05	9.207114e-06	-5.997443e-07	-1.893482e-05	
21.970137	-4.215246e-05	4.181914e-06	-1.670558e-06	-1.088529e-05	
21.971137	-2.525553e-05	-4.768997e-06	-1.060777e-06	4.350581e-06	
21.972137	6.350439e-06	-1.312249e-05	2.242834e-06	3.176480e-07	
21.973138	3.844800e-05	-1.866726e-05	1.276559e-06	-7.495537e-06	
21.974138	5.886822e-05	-1.010323e-05	-1.229934e-06	-1.604188e-05	
21.975138	5.908138e-05	-5.893922e-06	-2.375513e-06	-4.624526e-06	
21.976139	4.208264e-05	-1.000775e-05	-3.225208e-06	3.218440e-06	
21.977139	1.306714e-05	1.804411e-06	-2.939111e-06	-3.851327e-05	
21.978139	-1.104278e-05	1.119663e-05	-1.874075e-06	-5.142850e-05	
21.979140	-1.919131e-05	9.175776e-06	4.893052e-07	-1.333328e-05	
21.980140	-1.401313e-05	8.100337e-06	1.923329e-06	1.541196e-06	
21.981140	-5.424824e-06	6.446205e-06	1.194981e-07	-4.009707e-07	
21.982141	-1.319960e-05	1.121843e-06	1.821349e-06	4.296105e-06	
21.983141	-1.139189e-05	-4.301818e-06	6.499315e-06	1.270545e-05	
21.984141	1.475097e-05	9.664284e-07	3.187698e-06	1.401104e-05	
21.985142	3.067575e-05	1.299296e-08	-6.657387e-07	3.606193e-07	
21.986142	1.129320e-05	-1.266618e-05	9.696115e-07	-7.294064e-07	
21.987142	-4.030165e-05	-1.745383e-05	-1.047664e-06	1.255581e-05	
21.988142	-6.598042e-05	-1.849223e-05	3.845149e-07	1.436777e-05	
21.989143	-3.574557e-05	-1.249943e-05	2.899019e-06	5.091481e-06	
21.990143	1.252020e-05	6.351695e-08	-1.628362e-06	-1.362209e-05	
21.991143	1.929100e-05	1.305308e-05	5.823757e-07	-2.273526e-05	
21.992144	-3.937952e-05	2.860177e-05	4.761888e-06	7.777535e-06	
21.993144	-7.074895e-05	3.174655e-05	1.831211e-06	5.141440e-05	
21.994144	-4.601740e-05	2.177236e-05	6.147892e-07	6.616682e-05	
21.995145	-4.898103e-05	1.248654e-05	-8.826148e-07	6.065476e-05	
21.996145	-3.655877e-05	6.051268e-06	-3.146241e-06	5.363672e-05	
21.997145	4.206848e-05	1.409932e-06	-2.175766e-06	4.106197e-05	
21.998146	9.897470e-05	-2.063076e-07	-1.556270e-06	4.456944e-05	
21.999146	1.322454e-04	-1.771094e-06	-7.765913e-08	4.121555e-05	
22.000146	1.793027e-04	-6.923787e-06	1.703020e-06	-3.809808e-05	
22.001147	1.516799e-04	-1.087995e-05	-1.644968e-06	-1.039517e-04	
22.002147	6.999521e-05	-1.292702e-05	-4.757920e-06	-8.621163e-05	
22.003147	3.170520e-05	-1.295120e-05	-1.141359e-06	-6.926257e-05	
22.004148	-6.472432e-07	-1.369183e-05	3.120385e-06	-4.820162e-05	
22.005148	-3.449320e-05	-1.450646e-05	3.182694e-06	-2.612169e-05	
22.006148	-3.177911e-05	-5.192641e-06	9.449803e-07	-4.049479e-05	
22.007149	-2.871222e-05	5.933389e-06	-1.297354e-06	-3.285216e-05	
22.008149	-4.517463e-05	8.750903e-06	1.352835e-07	-7.555094e-07	
22.009149	-4.973270e-05	7.646266e-06	1.712479e-06	1.820191e-05	
22.010150	-2.684332e-05	6.045372e-06	-1.780581e-06	2.721012e-05	
22.011150	-4.674974e-07	8.463996e-07	-3.823626e-06	2.139822e-05	
22.012150	-4.739877e-06	-9.440099e-06	-2.836510e-06	1.283447e-05	
22.013151	-3.750031e-05	-1.686322e-05	-5.250334e-06	1.772237e-05	
22.014151	-7.438920e-05	-2.090741e-05	-5.108571e-06	2.775104e-05	
22.015151	-9.818255e-05	-1.920971e-05	2.746171e-06	3.468314e-05	
22.016152	-1.126310e-04	-6.422943e-06	4.619471e-06	3.151447e-05	
22.017152	-1.298721e-04	4.315570e-06	5.893182e-07	2.272099e-05	
22.018152	-1.248551e-04	9.773430e-06	8.556854e-07	1.227411e-05	
22.019153	-1.040318e-04	1.683693e-05	-1.254790e-06	-1.117438e-05	
22.020153	-5.882764e-05	1.819227e-05	-1.646479e-06	-2.124170e-05	
22.021153	7.188613e-05	1.832024e-05	1.616310e-06	-6.561341e-06	
22.022154	1.624814e-04	2.452092e-05	2.800681e-06	-4.649087e-06	
22.023154	9.377442e-05	2.473195e-05	6.011513e-06	-8.038140e-06	
22.024154	2.257540e-05	1.028497e-05	2.359676e-06	-1.477563e-06	
22.025155	4.284594e-05	-1.309815e-05	-4.604015e-06	4.427751e-06	
22.026155	8.217021e-05	-2.380918e-05	-3.083482e-06	8.422821e-06	
22.027155	1.009032e-04	-2.472585e-05	-1.042108e-06	-2.824605e-06	
22.028155	9.704302e-05	-2.723445e-05	9.542861e-07	-3.019129e-05	
22.029156	1.035308e-04	-5.013638e-06	1.367764e-06	-3.496196e-05	
22.030156	1.379859e-04	1.750886e-05	-2.765938e-07	-1.204867e-05	
22.031156	1.529397e-04	4.348205e-06	6.786740e-07	-1.108250e-05	
22.032157	9.595214e-05	-8.662379e-06	-5.645888e-07	-2.023948e-05	
22.033157	-4.719441e-05	3.522927e-06	-8.442875e-07	-1.462740e-06	
22.034157	-1.943591e-04	2.792757e-05	1.343843e-07	1.389230e-05	
22.035158	-2.603276e-04	3.137662e-05	-2.104063e-07	1.030732e-05	
22.036158	-2.688264e-04	7.576073e-06	1.267914e-06	1.120050e-05	
22.037158	-2.145166e-04	-1.210821e-05	-5.604100e-07	1.837458e-05	
22.038159	-1.529220e-04	-2.594648e-05	-1.811001e-06	1.475284e-05	
22.039159	-1.054971e-04	-3.013579e-05	2.400809e-06	2.015164e-05	
22.040159	1.152457e-04	-7.378159e-06	3.689903e-06	4.534595e-05	
22.041160	3.204490e-04	1.124062e-05	2.061708e-06	4.385436e-05	
22.042160	1.824883e-04	1.746503e-06	1.643595e-06	2.068019e-05	
22.043160	-2.026183e-05	-1.992628e-06	1.018124e-06	1.207104e-06	
22.044161	-5.936524e-06	2.420233e-06	1.845516e-06	-1.476173e-05	
22.045161	5.995559e-05	-1.078450e-05	3.541614e-06	-1.741806e-05	
22.046161	2.751061e-05	-1.938090e-05	1.500245e-06	-2.472175e-05	
22.047162	-3.111928e-05	-7.547631e-06	2.019435e-07	-3.941168e-05	
22.048162	-3.135178e-05	1.357743e-05	1.064697e-06	-4.468931e-05	
22.049162	2.162824e-05	3.255271e-05	-7.320651e-07	-3.375116e-05	
22.050163	6.391243e-05	2.513550e-05	-3.120231e-06	-1.204561e-05	
22.051163	7.623755e-05	4.230177e-06	-7.341887e-06	-1.113829e-06	
22.052163	1.462278e-04	1.944427e-07	-8.248584e-06	-3.641263e-06	
22.053164	1.831633e-04	2.427746e-06	9.938592e-08	-2.601580e-05	
22.054164	7.966107e-05	3.743130e-06	6.145485e-06	-2.924387e-05	
22.055164	-7.677269e-06	-2.039611e-07	4.088559e-06	1.593247e-05	
22.056165	-4.709540e-05	-9.503897e-06	3.871108e-07	4.161769e-05	
22.057165	-1.057740e-04	-1.087231e-05	5.946207e-07	5.361994e-05	
22.058165	-1.573317e-04	-1.064556e-05	-1.868909e-07	8.215017e-05	
22.059166	-1.958178e-04	-8.498737e-06	-5.125673e-06	9.485352e-05	
22.060166	-1.845100e-04	-5.341477e-06	-6.248483e-06	7.283169e-05	
22.061166	-1.419474e-04	-9.049217e-06	-5.517337e-06	-1.348182e-05	
22.062167	-1.430485e-04	-5.813493e-06	-4.756386e-06	-8.494459e-05	
22.063167	-1.453674e-04	1.953349e-06	-2.057821e-06	-5.696459e-05	
22.064167	-6.577365e-05	4.164437e-06	-1.971568e-06	-3.221378e-05	
22.065168	8.244762e-05	1.012953e-05	-4.788733e-07	-2.776677e-05	
22.066168	2.203511e-04	1.454807e-05	3.354198e-06	1.814143e-07	
22.067168	2.871204e-04	4.189688e-06	1.992720e-06	-1.995720e-05	
22.068169	2.376680e-04	-6.877809e-06	2.308862e-06	-4.058732e-05	
22.069169	1.074217e-04	-6.437678e-06	5.290977e-06	-1.582710e-05	
22.070169	-4.040170e-06	-2.540915e-06	7.980205e-07	-2.910507e-05	
22.071169	-8.594077e-05	3.247973e-06	1.249432e-07	-4.046725e-05	
22.072170	-1.303749e-04	7.532392e-07	3.131336e-06	-1.803293e-05	
22.073170	-1.118837e-04	-6.553254e-07	-5.025025e-07	6.768864e-06	
22.074170	-3.438827e-05	1.738384e-05	2.545400e-06	5.643402e-05	
22.075171	8.631359e-05	2.079283e-05	6.133793e-06	8.324003e-05	
22.076171	1.184636e-04	4.446336e-06	1.627607e-06	7.932251e-05	
22.077171	4.240858e-05	-3.335471e-06	1.920264e-06	9.090803e-05	
22.078172	1.617423e-05	-1.065740e-05	7.217538e-07	6.241343e-05	
22.079172	1.875305e-05	-1.574469e-05	-4.524868e-06	-1.096846e-05	
22.080172	-1.823051e-05	-4.884018e-06	-3.716088e-06	-3.469632e-05	
22.081173	-4.873479e-05	9.352539e-06	-6.299851e-07	-2.576599e-05	
22.082173	-6.090271e-05	7.597533e-06	1.003447e-06	-8.346375e-05	
22.083173	-4.993108e-05	-3.631098e-06	-4.814510e-07	-1.350451e-04	
22.084174	-1.686812e-05	-9.209447e-06	-3.030775e-06	-8.455242e-05	
22.085174	-7.851415e-06	-1.193820e-05	-1.623897e-06	-4.010507e-05	
22.086174	-1.828954e-05	-1.666963e-05	-1.083923e-07	-3.672987e-05	
22.087175	-1.291912e-05	-1.980802e-05	4.682936e-07	5.017528e-06	
22.088175	-1.820357e-05	-1.187365e-05	4.670138e-07	4.092188e-05	
22.089175	-3.262486e-05	4.270311e-06	4.068631e-07	3.830126e-05	
22.090176	-2.369893e-05	1.600686e-05	2.994596e-06	3.238882e-05	
22.091176	-1.042113e-05	1.984180e-05	2.918333e-06	1.940183e-05	
22.092176	-2.093674e-06	1.642104e-05	1.478284e-06	1.183009e-05	
22.093177	1.194790e-06	8.335392e-06	3.486606e-06	2.715373e-05	
22.094177	6.176795e-06	-2.868742e-07	2.018740e-06	5.098537e-05	
22.095177	2.871065e-05	2.680911e-06	-2.011338e-06	2.900065e-05	
22.096178	3.970916e-05	-6.030856e-06	-4.337197e-06	-5.501228e-05	
22.097178	2.581340e-05	-3.774908e-05	-5.810263e-06	-1.015901e-04	
22.098178	1.215520e-05	-2.674954e-05	-2.745798e-06	-6.397982e-05	
22.099179	4.884429e-06	-2.725995e-06	-6.478177e-07	1.794228e-05	
22.100179	4.468729e-08	-1.750451e-05	-6.275891e-07	7.734415e-05	
22.101179	-1.790466e-06	-1.011527e-05	2.172231e-06	5.633892e-05	
22.102180	-3.910734e-06	6.837765e-06	1.767862e-06	1.767576e-05	
22.103180	-6.361628e-06	6.016457e-06	8.225635e-07	1.187432e-05	
22.104180	-6.291489e-06	8.415024e-07	1.039458e-06	3.761796e-05	
22.105181	-9.063647e-06	-1.182015e-05	1.559856e-06	7.189859e-05	
22.106181	-1.171693e-05	-1.122872e-05	2.919140e-06	2.274774e-05	
22.107181	-6.525873e-06	-1.997018e-05	8.683933e-07	-7.149532e-05	
22.108182	-1.501718e-06	1.259886e-06	8.340288e-07	-9.238485e-05	
22.109182	-2.061983e-06	6.826717e-05	1.631633e-06	-3.531426e-05	
22.110182	-3.540211e-06	4.943277e-05	4.271987e-07	1.966819e-05	
22.111182	-6.893830e-06	-2.910069e-07	4.630959e-07	1.514793e-06	
22.112183	-1.411609e-05	5.660994e-05	-2.916934e-06	-5.219416e-05	
22.113183	-1.685934e-05	1.332381e-04	-7.464862e-06	-3.700975e-06	
22.114183	-1.122373e-05	1.001785e-04	-8.498359e-06	2.126801e-04	
22.115184	-6.123754e-07	4.102796e-06	-7.009138e-06	3.617196e-04	
22.116184	1.712775e-05	-2.751827e-05	-3.542967e-06	2.864217e-04	
22.117184	3.906929e-05	2.319593e-05	1.907818e-06	2.085742e-04	
22.118185	5.725364e-05	7.972781e-05	4.685572e-06	1.877437e-04	
22.119185	6.414916e-05	2.195512e-05	2.747988e-06	1.405520e-04	
22.120185	5.266974e-05	-1.164147e-04	7.604226e-06	8.197577e-05	
22.121186	2.878205e-05	-1.894107e-04	1.293223e-05	-2.668475e-04	
22.122186	1.331731e-05	-2.188386e-04	4.261730e-06	-8.648760e-04	
22.123186	1.535121e-05	-1.998606e-04	-2.749307e-06	-8.891928e-04	
22.124187	1.876030e-05	-1.028796e-04	-2.103900e-07	-3.524208e-04	
22.125187	1.289309e-05	3.116175e-05	-2.058738e-07	-6.978620e-05	
22.126187	-3.012251e-06	1.839839e-04	-1.337787e-06	-1.700906e-05	
22.127188	-2.573070e-05	2.554138e-04	-1.770994e-06	4.468650e-05	
22.128188	-4.194943e-05	2.007365e-04	-5.090224e-06	7.686597e-05	
22.129188	-4.582317e-05	1.049052e-04	-6.266152e-06	1.419029e-04	
22.130189	-3.528568e-05	-5.273980e-06	-6.266013e-06	1.148864e-04	
22.131189	-1.695335e-05	-1.322374e-04	-5.873702e-06	2.917146e-05	
22.132189	-1.018894e-06	-2.038260e-04	-1.449980e-07	9.375689e-05	
22.133190	1.595001e-05	-1.574017e-04	2.209369e-06	1.851223e-04	
22.134190	2.102364e-05	-9.681700e-05	-6.975476e-07	1.694895e-04	
22.135190	4.304028e-07	-1.275870e-04	-1.798888e-06	9.694845e-05	
22.136191	-2.081910e-05	-1.303212e-04	-5.089224e-06	5.445944e-05	
22.137191	-1.369002e-05	-3.334811e-05	-6.402462e-06	1.176681e-04	
22.138191	2.877819e-07	4.039494e-05	4.189045e-07	1.765777e-04	
22.139192	-1.047410e-05	5.922036e-05	5.012841e-06	1.473804e-04	
22.140192	-2.624957e-05	7.952359e-05	4.178621e-06	1.301552e-04	
22.141192	-3.087362e-05	1.143436e-04	5.378654e-06	7.834818e-05	
22.142193	-3.572035e-05	1.243474e-04	6.692912e-06	-8.420303e-06	
22.143193	-3.856314e-05	9.959632e-05	6.604854e-06	-7.281881e-05	
22.144193	-3.130785e-05	1.412449e-04	7.243310e-06	-2.000901e-04	
22.145194	-1.752984e-05	1.737598e-04	9.730634e-06	-2.076521e-04	
22.146194	-1.194926e-05	1.061256e-04	1.230007e-05	-2.587644e-05	
22.147194	-1.485914e-05	7.018213e-05	9.800666e-06	5.693857e-05	
22.148195	-1.337237e-05	1.336020e-05	6.838708e-06	5.833427e-05	
22.149195	-1.059450e-05	-7.624574e-05	4.492162e-06	8.114096e-05	
22.150195	-8.282682e-06	-6.517594e-05	8.776547e-07	4.773615e-06	
22.151196	-1.251699e-06	-5.784231e-05	-1.395133e-07	-1.233388e-04	
22.152196	3.963893e-06	-9.666915e-05	-3.943464e-06	-1.305943e-04	
22.153196	5.314006e-06	-1.155501e-04	-8.327314e-06	-1.056046e-04	
22.154196	9.116921e-06	-1.159860e-04	-9.160634e-06	-1.126444e-04	
22.155197	8.654134e-06	-3.864730e-05	-1.211345e-05	-9.805803e-06	
22.156197	4.274083e-06	3.831207e-05	-1.239405e-05	9.888283e-05	
22.157197	1.273979e-06	-8.185618e-06	-1.034551e-05	1.099193e-04	
22.158198	-1.352240e-05	-4.584292e-05	-1.260960e-05	1.032198e-04	
22.159198	-1.557002e-05	-6.044361e-06	-1.603962e-05	4.831391e-05	
22.160198	2.826489e-05	-1.596122e-05	-1.653542e-05	3.965613e-05	
22.161199	7.609373e-05	-4.597406e-05	-1.008015e-05	8.272539e-05	
22.162199	9.490387e-05	5.130311e-05	-2.361885e-06	-1.580732e-05	
22.163199	9.671698e-05	1.656952e-04	-1.404442e-06	-1.071248e-04	
22.164200	7.735248e-05	1.171204e-04	-6.501808e-07	-8.846911e-05	
22.165200	4.846455e-05	1.716248e-05	3.031304e-06	-9.452120e-05	
22.166200	3.807044e-05	-5.362104e-05	8.311695e-06	-6.712800e-05	
22.167201	4.781626e-05	-1.009615e-04	1.289019e-05	-2.198401e-05	
22.168201	5.551927e-05	-2.489603e-05	1.506795e-05	-2.241462e-05	
22.169201	3.531907e-05	1.026819e-04	1.849665e-05	-1.615002e-05	
22.170202	-3.138711e-06	1.189121e-04	1.592497e-05	-2.686016e-05	
22.171202	-3.570888e-05	-9.360545e-06	8.728993e-06	-2.658349e-05	
22.172202	-5.680360e-05	-1.686666e-04	8.897654e-06	1.142595e-05	
22.173203	-5.568378e-05	-2.058782e-04	1.140213e-05	3.036180e-05	
22.174203	-3.382774e-05	-1.429273e-04	9.897846e-06	3.688622e-05	
22.175203	-1.788625e-05	-2.894473e-05	6.804882e-06	4.414372e-05	
22.176204	-2.638789e-05	5.515256e-05	5.227636e-06	4.222084e-05	
22.177204	-4.843950e-05	4.597855e-05	2.205654e-08	3.622649e-05	
22.178204	-6.062519e-05	4.795602e-05	-8.042592e-06	3.019926e-05	
22.179205	-6.081136e-05	4.425465e-05	-1.208311e-05	2.293409e-05	
22.180205	-5.980520e-05	5.809237e-06	-1.678085e-05	1.355471e-05	
22.181205	-5.320439e-05	4.900331e-05	-2.043056e-05	1.216026e-05	
22.182206	-3.608430e-05	1.600012e-04	-2.066504e-05	8.511259e-06	
22.183206	-2.950386e-05	1.407942e-04	-2.063724e-05	-5.671372e-06	
22.184206	-3.464007e-05	-3.999521e-05	-1.900273e-05	-1.148340e-05	
22.185207	-2.152969e-05	-8.414007e-05	-1.284882e-05	-1.085970e-05	
22.186207	-3.139636e-06	-9.334588e-06	-2.071577e-06	-4.953574e-06	
22.187207	-3.268651e-06	-1.089890e-04	5.036795e-06	8.541400e-06	
22.188208	-7.426943e-06	-1.913940e-04	9.600409e-06	1.234029e-05	
22.189208	-5.393281e-06	-8.075582e-05	1.768503e-05	9.706268e-06	
22.190208	3.478244e-06	3.449372e-05	1.882351e-05	8.768225e-06	
22.191209	1.523802e-05	1.166549e-04	1.358262e-05	3.493838e-06	
22.192209	1.498899e-05	1.689486e-04	1.676511e-05	-2.433805e-06	
22.193209	7.048211e-06	1.675919e-04	2.171224e-05	-5.536270e-06	
22.194209	1.557468e-05	1.522542e-04	1.920210e-05	-5.591728e-06	
22.195210	3.598109e-05	7.831655e-05	1.384857e-05	-3.511721e-06	
22.196210	5.076862e-05	-2.124587e-05	7.426599e-06	-3.258497e-06	
22.197210	6.401313e-05	-7.849847e-05	5.179210e-06	-4.376428e-06	
22.198211	6.815230e-05	-1.237810e-04	5.066267e-06	-9.340904e-06	
22.199211	5.719724e-05	-1.288283e-04	-1.458287e-06	-1.748069e-05	
22.200211	4.257356e-05	-1.018645e-04	-8.354255e-06	-1.722867e-05	
22.201212	2.837082e-05	-8.171011e-05	-1.065065e-05	-1.297895e-05	
22.202212	2.075479e-05	-2.492802e-05	-1.358072e-05	-1.594155e-05	
22.203212	1.688407e-05	2.080694e-05	-1.963714e-05	-1.393118e-05	
22.204213	9.420178e-06	2.841298e-06	-2.320797e-05	-6.814380e-06	
22.205213	5.501108e-06	2.395988e-06	-2.003754e-05	-4.922831e-06	
22.206213	3.474859e-06	2.626023e-05	-1.758103e-05	-1.113676e-06	
22.207214	-1.480070e-06	1.877468e-05	-1.964316e-05	1.853517e-06	
22.208214	-6.447772e-06	1.698556e-06	-1.804625e-05	3.365500e-06	
22.209214	-1.218279e-05	5.322117e-06	-1.051148e-05	1.145005e-05	
22.210215	-1.929221e-05	2.265601e-05	-2.532625e-06	1.736286e-05	
22.211215	-2.497206e-05	2.912178e-05	1.696994e-06	6.255087e-06	
22.212215	-2.884478e-05	1.753487e-05	3.331895e-06	-9.747529e-06	
22.213216	-3.001354e-05	-6.786685e-06	7.929056e-06	-4.330446e-06	
22.214216	-2.760680e-05	-3.182221e-05	1.396405e-05	1.277532e-05	
22.215216	-2.682068e-05	-4.169752e-05	1.471075e-05	2.611770e-05	
22.216217	-2.469522e-05	-2.730842e-05	1.342924e-05	3.366368e-05	
22.217217	-1.952031e-05	2.437888e-05	1.254813e-05	2.741944e-05	
22.218217	-1.804127e-05	6.309428e-05	8.177251e-06	1.483934e-05	
22.219218	-1.687043e-05	3.944395e-05	8.016353e-06	-3.416841e-07	
22.220218	-1.608551e-05	-2.301740e-06	9.253790e-06	-2.229907e-05	
22.221218	-1.355203e-05	-1.615605e-05	4.239199e-06	-2.616241e-05	
22.222219	-7.368446e-06	-1.006217e-05	4.311055e-06	-1.083713e-05	
22.223219	-1.270723e-05	-4.078335e-06	3.467490e-06	-2.332868e-05	
22.224219	-1.733760e-05	2.196694e-05	-5.274954e-07	-4.484758e-05	
22.225220	-3.026715e-06	6.121724e-05	5.115384e-06	-2.888131e-05	
22.226220	4.492901e-06	7.775875e-05	7.395623e-06	-1.070915e-05	
22.227220	-7.209938e-07	4.609007e-05	3.419965e-06	-9.312450e-06	
22.228221	5.828875e-07	-3.061525e-05	5.144398e-06	6.096981e-06	
22.229221	3.512278e-06	-6.436867e-05	5.896650e-06	3.085025e-05	
22.230221	9.298324e-06	-5.819080e-05	4.137858e-07	3.606349e-05	
22.231222	2.081197e-05	-5.618015e-05	-5.559772e-06	2.770555e-05	
22.232222	2.717294e-05	-1.489365e-05	-6.685304e-06	2.186019e-05	
22.233222	3.013247e-05	2.005007e-06	-7.605420e-06	1.266132e-05	
22.234223	2.694710e-05	-3.450701e-05	-1.088554e-05	1.194384e-05	
22.235223	1.258703e-05	-3.481689e-05	-9.185029e-06	8.674796e-07	
22.236223	7.746570e-06	-6.130684e-06	-5.593867e-06	-5.076375e-05	
22.237223	1.878541e-05	1.156334e-05	-5.779894e-06	-8.446948e-05	
22.238224	2.225830e-05	1.950025e-05	-3.884860e-06	-5.396027e-05	
22.239224	1.398009e-05	2.179791e-05	-1.676620e-07	9.153769e-06	
22.240224	5.869524e-06	2.076071e-05	-3.932571e-06	5.373389e-05	
22.241225	2.553836e-06	1.485072e-05	-1.051426e-05	6.076568e-05	
22.242225	2.013600e-06	1.370814e-05	-1.199175e-05	6.306824e-05	
22.243225	-5.493955e-06	1.406460e-05	-1.250235e-05	5.760479e-05	
22.244226	-1.501753e-05	6.821170e-06	-1.031861e-05	1.875837e-05	
22.245226	-1.780750e-05	4.493175e-07	-4.709137e-06	-1.456208e-05	
22.246226	-2.217268e-05	8.277050e-07	7.026271e-08	-8.307424e-06	
22.247227	-2.705346e-05	8.493352e-08	3.283828e-06	-3.015035e-06	
22.248227	-3.247562e-05	-1.358010e-05	3.290151e-06	-3.912772e-05	
22.249227	-3.776197e-05	-2.246891e-05	5.316993e-06	-5.746122e-05	
22.250228	-3.334460e-05	-8.629708e-06	1.107219e-05	-2.083536e-05	
22.251228	-2.943121e-05	3.022534e-06	1.165405e-05	-5.823299e-06	
22.252228	-2.659839e-05	-1.234375e-06	1.158654e-05	-1.593885e-05	
22.253229	-1.262892e-05	-3.539923e-06	1.681432e-05	-8.902877e-06	
22.254229	5.401296e-06	1.701106e-06	1.811709e-05	-7.056016e-06	
22.255229	2.160527e-05	6.536244e-06	1.780107e-05	3.886193e-06	
22.256230	3.749689e-05	7.600401e-06	1.929241e-05	2.730785e-05	
22.257230	4.868651e-05	7.626575e-06	1.557967e-05	3.529306e-05	
22.258230	5.189545e-05	8.114587e-06	1.239546e-05	3.266995e-05	
22.259231	5.414526e-05	5.615118e-06	8.415021e-06	1.705765e-05	
22.260231	5.225372e-05	1.667646e-06	1.737962e-06	-2.732211e-06	
22.261231	4.311234e-05	1.895198e-06	1.033081e-07	-1.456786e-05	
22.262232	3.519944e-05	1.799156e-06	-4.805844e-06	-2.355368e-05	
22.263232	1.802854e-05	-6.022353e-06	-8.290902e-06	-2.381506e-05	
22.264232	1.937285e-07	-1.389067e-05	-4.570611e-06	-1.851089e-05	
22.265233	-4.184231e-06	-1.876753e-05	-6.357020e-06	-1.817075e-05	
22.266233	-2.170036e-05	-2.051499e-05	-9.780211e-06	-1.890214e-05	
22.267233	-4.737405e-05	-1.030537e-05	-1.451421e-05	-1.854192e-05	
22.268234	-5.698082e-05	-8.126256e-06	-2.318757e-05	-2.311644e-05	
22.269234	-5.374255e-05	-1.324143e-05	-2.652787e-05	-2.012472e-05	
22.270234	-3.601094e-05	3.389723e-06	-2.616568e-05	4.352524e-06	
22.271235	-1.461662e-05	1.049768e-05	-2.873705e-05	2.973087e-05	
22.272235	3.192063e-06	-4.363110e-06	-3.253342e-05	3.790468e-05	
22.273235	2.406763e-05	-6.487475e-06	-3.192248e-05	2.678036e-05	
22.274236	3.685706e-05	9.595638e-06	-2.645338e-05	-3.650318e-06	
22.275236	4.101449e-05	4.606028e-05	-1.356197e-05	-2.185398e-05	
22.276236	3.942996e-05	6.377160e-05	2.222289e-07	-8.825579e-06	
22.277236	2.770047e-05	2.335636e-05	2.214682e-06	7.760140e-06	
22.278237	1.231829e-05	-7.443378e-06	6.802622e-06	1.939628e-05	
22.279237	-1.863595e-06	7.356165e-06	2.142386e-05	2.970785e-05	
22.280237	-1.367911e-05	1.148506e-05	2.993970e-05	2.884329e-05	
22.281238	-2.752871e-05	-3.412862e-06	2.858066e-05	2.339291e-05	
22.282238	-4.019852e-05	-1.063395e-05	2.744556e-05	2.452114e-05	
22.283238	-4.015526e-05	-1.060636e-05	3.190832e-05	2.068274e-05	
22.284239	-3.672330e-05	-9.735729e-06	3.402093e-05	6.640675e-06	
22.285239	-4.020498e-05	-7.154383e-06	3.027452e-05	4.981424e-06	
22.286239	-3.988854e-05	1.002895e-05	2.651005e-05	1.185463e-05	
22.287240	-3.533364e-05	1.062086e-05	2.568279e-05	4.580347e-06	
22.288240	-3.781589e-05	-3.162401e-05	2.427974e-05	-1.059198e-05	
22.289240	-3.290140e-05	-5.167035e-05	1.413104e-05	-2.515028e-05	
22.290241	-1.421643e-05	-3.253693e-05	1.469753e-06	-3.179714e-05	
22.291241	-9.848923e-07	-4.852690e-06	-4.554999e-06	-3.083056e-05	
22.292241	8.417134e-06	2.629656e-05	-9.747438e-06	-3.714722e-05	
22.293242	1.496151e-05	2.010688e-05	-1.656969e-05	-4.183637e-05	
22.294242	1.560124e-05	-1.342381e-05	-2.401231e-05	-3.035894e-05	
22.295242	1.990718e-05	-2.486904e-05	-2.811272e-05	-1.532149e-05	
22.296243	2.615075e-05	-1.020643e-05	-2.672741e-05	-9.098888e-06	
22.297243	3.156730e-05	1.621618e-05	-2.796838e-05	-5.878153e-06	
22.298243	3.156148e-05	6.214495e-06	-2.744107e-05	-3.040730e-07	
22.299244	2.462781e-05	-3.104276e-05	-2.039237e-05	6.484086e-06	
22.300244	1.904032e-05	-3.622330e-05	-1.400950e-05	1.569287e-05	
22.301244	1.779228e-05	-1.443266e-05	-7.560019e-06	2.711957e-05	
22.302245	2.082509e-05	1.348062e-05	-5.328568e-06	3.875581e-05	
22.303245	1.763712e-05	1.042914e-05	-6.863792e-06	4.504033e-05	
22.304245	1.426717e-05	-1.483489e-05	-1.950914e-06	3.953217e-05	
22.305246	2.185077e-05	1.271365e-05	2.246244e-06	3.062600e-05	
22.306246	2.345541e-05	5.589564e-05	4.557579e-06	1.550845e-05	
22.307246	1.831622e-05	4.222022e-05	1.238709e-05	-1.549782e-05	
22.308247	9.271711e-06	8.985116e-06	1.873934e-05	-3.564938e-05	
22.309247	-5.742179e-06	2.128141e-06	2.047295e-05	-3.722373e-05	
22.310247	-1.627435e-05	2.159891e-05	1.695539e-05	-3.978859e-05	
22.311248	-2.227728e-05	5.510753e-05	8.260599e-06	-3.296352e-05	
22.312248	-2.599094e-05	8.095737e-05	6.884793e-06	-1.834734e-05	
22.313248	-3.180628e-05	7.733816e-05	1.137320e-05	-1.106756e-05	
22.314249	-1.953839e-05	4.409920e-05	7.246624e-06	-7.887108e-06	
22.315249	2.665075e-05	1.730318e-06	8.054876e-07	-2.825406e-06	
22.316249	4.580421e-05	-4.060096e-05	-1.420631e-06	7.792637e-06	
22.317250	1.409849e-05	-8.502236e-05	-5.937976e-06	1.470259e-05	
22.318250	-1.434612e-05	-1.286320e-04	-8.598115e-06	1.448963e-05	
22.319250	-2.629565e-05	-1.598395e-04	-9.825907e-06	1.642972e-05	
22.320250	-2.692987e-05	-1.211629e-04	-1.379029e-05	2.096826e-05	
22.321251	-1.548741e-05	-1.579755e-05	-9.524133e-06	2.585120e-05	
22.322251	-1.827233e-05	4.025451e-05	1.104553e-06	2.739841e-05	
22.323251	-3.245573e-05	4.093993e-05	5.206918e-06	2.512353e-05	
22.324252	-2.650561e-05	4.142560e-05	6.416003e-06	2.275915e-05	
22.325252	-3.024963e-06	3.259149e-05	7.378940e-06	2.215358e-05	
22.326252	2.181661e-05	3.636930e-05	3.714675e-06	1.878878e-05	
22.327253	4.116675e-05	2.996558e-05	2.364580e-06	5.996664e-06	
22.328253	5.010686e-05	1.045046e-05	5.963252e-06	-9.753713e-06	
22.329253	5.584298e-05	3.029014e-05	6.247334e-06	-2.291456e-05	
22.330254	5.626318e-05	2.096665e-05	6.676150e-06	-3.119163e-05	
22.331254	4.394561e-05	-2.055513e-05	1.085472e-05	-3.440292e-05	
22.332254	3.529630e-05	-2.264530e-05	8.762836e-06	-3.965002e-05	
22.333255	2.848757e-05	-2.855778e-05	-8.796676e-07	-3.707011e-05	
22.334255	5.717092e-06	-1.971754e-05	-3.284269e-06	-2.618447e-05	
22.335255	-2.028969e-05	2.289944e-05	2.752702e-06	-2.016175e-05	
22.336256	-3.724230e-05	2.082123e-05	1.750305e-06	-8.155642e-06	
22.337256	-5.219308e-05	4.797176e-06	-7.403464e-06	7.157968e-06	
22.338256	-6.892809e-05	1.869195e-05	-1.482760e-05	1.381158e-05	
22.339257	-8.415895e-05	1.365948e-05	-1.336936e-05	1.870943e-05	
22.340257	-9.195135e-05	-1.309700e-06	-6.023241e-06	2.181357e-05	
22.341257	-8.562133e-05	5.600826e-06	-2.038017e-06	2.222902e-05	
22.342258	-6.679150e-05	1.173037e-05	-5.790632e-07	2.018227e-05	
22.343258	-5.069150e-05	1.217101e-05	-2.824012e-06	1.345131e-05	
22.344258	-3.856409e-05	2.564613e-05	-6.345435e-06	7.692280e-06	
22.345259	-2.213944e-05	1.385551e-05	-6.215596e-06	4.219792e-06	
22.346259	-3.956880e-06	-2.536140e-05	-1.056910e-05	-1.561360e-07	
22.347259	1.808747e-05	-1.676065e-05	-1.894482e-05	-3.797100e-06	
22.348260	3.672127e-05	2.914725e-06	-2.634193e-05	-6.528419e-06	
22.349260	5.012275e-05	2.145154e-07	-2.740223e-05	-7.106335e-06	
22.350260	6.483549e-05	1.671630e-05	-1.964379e-05	-3.025040e-06	
22.351261	6.388507e-05	6.208543e-06	-1.370829e-05	-7.172983e-07	
22.352261	4.805287e-05	-2.161492e-05	-5.362159e-06	-1.939505e-06	
22.353261	3.790542e-05	-1.474901e-05	6.045845e-06	-5.940888e-07	
22.354262	3.880965e-05	-9.412816e-06	8.856321e-06	-7.647854e-07	
22.355262	4.496889e-05	-9.199461e-06	1.163786e-05	-4.172040e-06	
22.356262	4.651806e-05	-5.128730e-06	1.704809e-05	-2.170003e-06	
22.357263	4.215954e-05	-1.009928e-05	1.906533e-05	2.171148e-06	
22.358263	3.288864e-05	-9.029948e-06	2.265652e-05	-1.347600e-06	
22.359263	2.284169e-05	-1.366112e-05	2.590777e-05	-5.995781e-06	
22.360264	1.557992e-05	-3.156052e-05	2.487716e-05	-4.277682e-06	
22.361264	5.326992e-06	-3.460165e-05	2.249797e-05	-2.817544e-06	
22.362264	-2.134088e-06	-4.127492e-05	2.091679e-05	-2.648232e-06	
22.363264	-1.311540e-06	-3.885788e-05	2.422780e-05	-3.601710e-06	
22.364265	8.583866e-07	5.795457e-06	2.860189e-05	-5.738651e-06	
22.365265	-1.647160e-06	1.762751e-05	2.381844e-05	-3.691108e-06	
22.366265	-7.964400e-06	1.436343e-05	1.826912e-05	-2.482402e-06	
22.367266	-1.209047e-05	6.449645e-05	1.530477e-05	-2.370687e-06	
22.368266	-1.664490e-05	6.699955e-05	3.361368e-06	-3.186728e-07	
22.369266	-2.260232e-05	2.206091e-05	-8.446276e-06	4.104508e-07	
22.370267	-2.691326e-05	2.672932e-05	-1.233176e-05	3.095796e-06	
22.371267	-3.007564e-05	2.975110e-05	-1.724464e-05	1.577171e-06	
22.372267	-3.192697e-05	2.171265e-06	-2.471057e-05	-1.753437e-06	
22.373268	-3.499794e-05	-1.526045e-05	-3.411205e-05	1.691049e-06	
22.374268	-3.609573e-05	-2.556492e-05	-4.439559e-05	9.973284e-07	
22.375268	-3.525357e-05	-1.671909e-05	-5.023112e-05	1.425665e-06	
22.376269	-3.118491e-05	1.437952e-05	-5.019900e-05	7.282166e-06	
22.377269	-2.287106e-05	2.467376e-05	-4.431113e-05	5.234945e-06	
22.378269	-1.859951e-05	9.423969e-06	-2.969428e-05	3.501744e-06	
22.379270	-8.277920e-06	-1.684404e-05	-1.059919e-05	8.787687e-06	
22.380270	3.941371e-06	-3.788186e-05	3.154216e-06	8.578139e-06	
22.381270	3.464374e-06	-2.839028e-05	1.402970e-05	6.080851e-06	
22.382271	6.407835e-06	-6.421676e-06	2.262246e-05	7.266863e-06	
22.383271	1.266902e-05	1.203771e-05	2.358879e-05	5.681116e-06	
22.384271	1.267392e-05	3.145178e-05	2.495971e-05	7.843736e-06	
22.385272	1.541614e-05	3.507808e-05	2.758211e-05	1.105427e-05	
22.386272	1.578667e-05	9.617157e-06	3.051711e-05	8.775517e-06	
22.387272	1.011139e-05	-1.144010e-05	3.697306e-05	1.149045e-05	
22.388273	6.156738e-06	-5.456647e-06	4.274619e-05	1.303130e-05	
22.389273	1.275161e-06	-1.056155e-05	4.730465e-05	9.818253e-06	
22.390273	-1.161257e-06	-1.139545e-05	3.749897e-05	7.147380e-06	
22.391274	-2.324914e-06	1.568920e-05	2.561525e-05	6.658841e-06	
22.392274	-6.819317e-06	8.458571e-06	2.279042e-05	4.273687e-06	
22.393274	-9.893734e-06	-3.220341e-06	2.921798e-05	2.225355e-06	
22.394275	-1.165635e-05	9.402181e-06	4.432151e-05	8.688666e-06	
22.395275	-3.642354e-06	-1.683670e-05	3.019542e-05	4.585814e-06	
22.396275	5.534514e-06	-1.015867e-05	4.662998e-05	1.002937e-05	
22.397276	1.418140e-05	-1.554133e-05	4.786053e-05	3.609977e-06	
22.398276	1.695300e-05	-2.798724e-05	5.386189e-05	-8.954677e-06	
22.399276	3.701586e-05	-7.604791e-05	7.473362e-06	-3.290032e-05	
22.400277	1.055182e-04	-3.572342e-04	-4.459503e-04	-2.171944e-04	
22.401277	4.804838e-05	-1.348125e-04	-4.363295e-04	-1.994435e-04	
22.402277	-6.258724e-05	4.201695e-04	2.673828e-04	1.339048e-04	
22.403277	1.927737e-05	1.018226e-04	1.531333e-04	1.011563e-04	
22.404278	5.920544e-05	-2.028680e-04	-2.851573e-04	-1.082456e-04	
22.405278	6.822502e-06	-7.090509e-06	-2.282542e-04	-9.070471e-05	
22.406278	-1.551067e-06	8.581618e-05	-7.759404e-05	-1.044971e-05	
22.407279	-4.642679e-05	2.918666e-04	3.137467e-04	1.697151e-04	
22.408279	-2.207585e-05	1.905729e-04	3.314413e-04	1.658845e-04	
22.409279	3.563293e-05	-1.203319e-04	-3.244828e-05	-1.939488e-05	
22.410280	1.194460e-05	-6.861719e-05	-1.401151e-06	-1.202952e-05	
22.411280	-1.890915e-05	6.953724e-06	2.911728e-05	1.757011e-06	
22.412280	-4.219039e-05	4.585589e-05	3.777286e-05	8.609335e-06	
22.413281	-3.627389e-05	7.170871e-05	1.853298e-04	9.062031e-05	
22.414281	-1.693479e-05	-1.574457e-05	1.396997e-04	6.988012e-05	
22.415281	1.138020e-05	-2.135871e-04	-1.604100e-04	-6.998442e-05	
22.416282	3.598118e-05	-3.486888e-04	-4.964095e-04	-2.157844e-04	
22.417282	1.216360e-05	-2.229207e-04	-5.758267e-04	-2.391563e-04	
22.418282	1.046421e-05	-1.382285e-04	-5.888278e-04	-2.195914e-04	
22.419283	-2.288736e-05	6.294223e-05	-4.208568e-04	-1.315085e-04	
22.420283	-1.135113e-04	5.505610e-04	3.199334e-04	1.957917e-04	
22.421283	-1.000715e-04	5.722596e-04	8.216419e-04	4.008350e-04	
22.422284	-4.125373e-05	1.617744e-04	6.160733e-04	2.697699e-04	
22.423284	-3.755213e-05	-2.412794e-05	3.920699e-04	1.454232e-04	
22.424284	-2.638667e-05	-5.384094e-05	3.076590e-04	1.004303e-04	
22.425285	-1.074032e-05	-7.416211e-05	2.186896e-04	5.420504e-05	
22.426285	1.917120e-05	-1.548843e-04	8.078194e-05	-1.225318e-06	
22.427285	3.343996e-05	-2.106730e-04	-1.184022e-04	-8.866522e-05	
22.428286	4.341096e-05	-2.482034e-04	-3.241590e-04	-1.805800e-04	
22.429286	9.899833e-05	-4.142123e-04	-6.447825e-04	-3.102000e-04	
22.430286	1.678737e-05	-6.179335e-05	-4.654628e-04	-2.226629e-04	
22.431287	-9.489728e-05	5.174837e-04	3.093205e-04	1.431788e-04	
22.432287	-2.938924e-05	3.428501e-04	4.994619e-04	2.433199e-04	
22.433287	1.236539e-05	5.597484e-05	2.459827e-04	1.054138e-04	
22.434288	3.418640e-05	4.623665e-05	1.972157e-04	6.765429e-05	
22.435288	8.166559e-05	-1.161622e-05	1.178768e-04	3.383084e-05	
22.436288	5.030863e-05	-1.527725e-05	4.463328e-05	-1.143673e-06	
22.437289	2.453577e-05	-4.420836e-05	1.921301e-05	-5.041957e-06	
22.438289	2.665624e-05	-1.066564e-04	-3.495191e-05	-2.214374e-05	
22.439289	2.203863e-05	-1.055343e-04	-5.701871e-05	-2.900385e-05	
22.440290	1.931107e-05	-7.535489e-05	-7.648731e-05	-3.307573e-05	
22.441290	5.606219e-06	-5.526998e-05	-8.921032e-05	-3.892068e-05	
22.442290	1.208468e-06	-9.126466e-05	-9.234555e-05	-3.761654e-05	
22.443291	-1.323402e-05	-1.013030e-04	-9.369429e-05	-3.375197e-05	
22.444291	-3.881613e-05	-5.983120e-05	-8.125842e-05	-3.084591e-05	
22.445291	-3.917375e-05	-3.117375e-05	-7.165754e-05	-2.990698e-05	
22.446291	-4.994732e-05	-1.242120e-05	-5.955465e-05	-2.312704e-05	
22.447292	-4.429565e-05	-2.748354e-06	-5.335885e-05	-1.621546e-05	
22.448292	2.969896e-05	7.871838e-06	-5.264217e-05	-1.449002e-05	
22.449292	9.130313e-05	8.851818e-06	-6.206206e-05	-1.453494e-05	
22.450293	8.337646e-05	9.816637e-06	-9.517821e-05	-2.554184e-05	
22.451293	3.884526e-05	6.697506e-05	-2.341586e-05	-2.859502e-06	
22.452293	1.962186e-05	5.097300e-06	6.746207e-06	2.947609e-06	
22.453294	2.124950e-05	-1.461624e-04	-1.924492e-04	-9.091378e-05	
22.454294	1.934121e-05	-1.645217e-04	-3.324000e-04	-1.465469e-04	
22.455294	4.988416e-05	-2.399258e-04	-5.109732e-04	-2.018668e-04	
22.456295	3.619198e-06	-1.214102e-07	-4.706442e-04	-1.807565e-04	
22.457295	-9.562747e-05	5.977273e-04	2.639333e-04	1.569832e-04	
22.458295	-5.324540e-05	4.171178e-04	4.757175e-04	2.676776e-04	
22.459296	-4.094693e-06	-1.261648e-04	-1.151273e-04	-2.761319e-05	
22.460296	-6.276208e-05	6.770883e-05	-2.897132e-06	3.126523e-06	
22.461296	-7.242000e-05	2.722898e-04	4.453892e-04	2.175982e-04	
22.462297	-8.346157e-06	-6.524252e-05	1.343288e-04	6.765910e-05	
22.463297	-1.542124e-05	-2.039342e-04	-2.442052e-04	-1.238720e-04	
22.464297	-8.592573e-05	1.179601e-04	4.610874e-05	1.353878e-05	
22.465298	-7.778035e-05	2.543586e-04	3.852262e-04	1.838493e-04	
22.466298	-4.969065e-05	5.826072e-05	2.652201e-04	1.170133e-04	
22.467298	-5.394898e-05	-2.968910e-05	1.492169e-04	4.626395e-05	
22.468299	1.515247e-05	-3.823198e-05	1.458152e-04	4.876554e-05	
22.469299	8.437448e-05	-8.440499e-05	3.391782e-05	1.013323e-07	
22.470299	6.790334e-05	-5.648031e-05	4.328496e-06	-1.579746e-05	
22.471300	4.437791e-05	-3.277637e-05	3.480383e-05	3.358087e-06	
22.472300	3.331962e-05	-5.407517e-05	9.464194e-06	-6.861523e-06	
22.473300	2.178979e-05	-5.311824e-05	6.434027e-06	-1.385818e-05	
22.474301	1.789262e-05	-4.596674e-05	-9.020090e-06	-1.672803e-05	
22.475301	1.506936e-05	-4.880471e-05	-2.989755e-05	-2.384751e-05	
22.476301	1.575081e-05	-4.057270e-05	-6.535528e-06	-2.009908e-05	
22.477302	1.720271e-05	-3.616841e-05	-2.000862e-05	-1.588873e-05	
22.478302	1.178492e-05	-4.492111e-05	-4.812101e-05	-1.691849e-05	
22.479302	-1.307463e-06	-4.211377e-05	-5.520579e-06	-9.594710e-06	
22.480303	-6.830176e-06	-4.397758e-05	3.123644e-05	-4.123637e-06	
22.481303	-1.061701e-05	-2.732753e-05	6.187362e-05	4.626845e-06	
22.482303	-1.860294e-05	-7.407819e-07	8.454174e-05	8.811838e-06	
22.483304	-1.938576e-05	1.683378e-05	7.456220e-05	6.805507e-06	
22.484304	-1.152974e-05	-1.695345e-05	3.620597e-05	-6.088129e-06	
22.485304	1.340770e-05	-1.272097e-04	-1.150288e-04	-7.142238e-05	
22.486304	-8.745880e-06	1.648857e-05	-4.055538e-05	-3.619190e-05	
22.487305	-5.451736e-05	2.125685e-04	2.280437e-04	8.990008e-05	
22.488305	-1.939204e-05	-3.283706e-05	6.384566e-05	2.555547e-05	
22.489305	-1.204163e-05	-1.686547e-04	-1.134006e-04	-5.421142e-05	
22.490306	-8.532783e-05	6.134655e-05	1.588088e-04	7.375551e-05	
22.491306	-8.858522e-05	4.016970e-05	2.043503e-04	1.060392e-04	
22.492306	1.651864e-05	-1.946445e-04	-1.476642e-04	-6.175343e-05	
22.493307	4.924089e-05	-2.808059e-05	-8.255432e-05	-4.343379e-05	
22.494307	-3.370319e-06	1.779481e-04	2.075972e-04	9.820494e-05	
22.495307	4.314337e-05	-1.075486e-04	-7.040463e-05	-2.293239e-05	
22.496308	2.763102e-05	-5.715707e-05	-1.335408e-04	-6.375711e-05	
22.497308	-8.443422e-05	2.460066e-04	2.486595e-04	1.124699e-04	
22.498308	-4.399328e-05	-4.399073e-05	5.853790e-05	3.237916e-05	
22.499309	2.827008e-05	-2.964434e-04	-3.319381e-04	-1.534978e-04	
22.500309	4.436807e-05	-2.052366e-04	-3.949922e-04	-1.747162e-04	
22.501309	9.283981e-05	-1.285061e-04	-4.393866e-04	-1.791733e-04	
22.502310	1.401268e-04	-3.459930e-05	-4.586380e-04	-1.782696e-04	
22.503310	1.500774e-04	3.060633e-05	-4.119647e-04	-1.438674e-04	
22.504310	1.055053e-04	7.865566e-05	-3.511744e-04	-1.092997e-04	
22.505311	6.484423e-05	1.428470e-04	-2.704704e-04	-6.932888e-05	
22.506311	6.235398e-05	2.047863e-04	-2.029930e-04	-3.830383e-05	
22.507311	5.194808e-05	2.198073e-04	-1.465093e-04	-1.825113e-05	
22.508312	3.160861e-05	1.451980e-04	-7.835579e-05	1.327559e-05	
22.509312	7.618108e-06	8.570199e-05	-1.285348e-05	4.289366e-05	
22.510312	-4.710105e-06	2.675690e-05	2.247575e-05	4.689363e-05	
22.511313	-7.004142e-06	-5.955373e-05	3.347990e-05	3.736270e-05	
22.512313	-2.309974e-05	-7.114669e-05	3.528011e-05	2.752424e-05	
22.513313	-2.067829e-05	-1.135147e-05	6.299817e-05	3.087806e-05	
22.514314	1.112881e-05	2.458380e-05	7.181417e-05	3.486848e-05	
22.515314	8.820432e-06	4.829441e-05	7.713156e-05	4.589748e-05	
22.516314	-7.867789e-06	3.652949e-05	9.141021e-05	5.254118e-05	
22.517315	-1.821877e-05	2.027214e-05	6.141267e-05	3.689830e-05	
22.518315	-5.847235e-05	1.061012e-04	7.744152e-05	5.246269e-05	
22.519315	-3.953969e-05	5.999116e-05	-7.914162e-06	1.672744e-05	
22.520316	-4.222579e-05	6.515648e-05	1.369127e-05	1.985756e-05	
22.521316	-7.647255e-05	1.535075e-04	1.213263e-04	7.090854e-05	
22.522316	-2.689980e-05	1.129268e-04	8.417226e-05	5.293173e-05	
22.523317	-2.333502e-04	6.610118e-04	9.884336e-04	4.341629e-04	
22.524317	-4.840241e-04	9.485775e-04	1.940653e-03	8.247296e-04	
22.525317	-3.200662e-04	1.366389e-04	1.376204e-03	5.222178e-04	
22.526318	-1.584232e-04	-3.066595e-04	7.664206e-04	1.952128e-04	
22.527318	-1.125731e-04	-3.439267e-04	5.449700e-04	7.413710e-05	
22.528318	-1.231078e-05	-5.130078e-04	1.522322e-04	-9.265933e-05	
22.529318	3.691160e-05	-4.793414e-04	-5.420280e-05	-1.677670e-04	
22.530319	7.811601e-05	-4.587042e-04	-2.308428e-04	-2.221490e-04	
22.531319	1.118919e-04	-4.399094e-04	-3.800262e-04	-2.593801e-04	
22.532319	1.260097e-04	-3.399173e-04	-4.409829e-04	-2.630850e-04	
22.533320	1.472908e-04	-2.666824e-04	-5.081636e-04	-2.743248e-04	
22.534320	1.537929e-04	-2.183043e-04	-5.175726e-04	-2.590818e-04	
22.535320	1.565071e-04	-1.963025e-04	-5.380722e-04	-2.430663e-04	
22.536321	1.473275e-04	-1.386248e-04	-5.448882e-04	-2.144081e-04	
22.537321	1.293791e-04	-8.646173e-05	-5.090383e-04	-1.735768e-04	
22.538321	1.137449e-04	-4.493869e-05	-4.791949e-04	-1.391096e-04	
22.539322	1.007305e-04	2.169173e-05	-4.450916e-04	-1.022751e-04	
22.540322	9.079747e-05	6.355524e-05	-3.967775e-04	-7.126562e-05	
22.541322	7.570742e-05	9.283795e-05	-3.450615e-04	-4.494106e-05	
22.542323	6.310092e-05	1.232605e-04	-2.948311e-04	-2.163821e-05	
22.543323	5.429953e-05	1.286122e-04	-2.379116e-04	-2.058761e-06	
22.544323	3.924045e-05	1.166766e-04	-1.798270e-04	1.002253e-05	
22.545324	1.942726e-05	1.174270e-04	-1.235593e-04	1.562347e-05	
22.546324	-5.339498e-08	1.361649e-04	-7.416085e-05	2.378348e-05	
22.547324	-2.045633e-05	1.506102e-04	-2.621910e-05	2.899287e-05	
22.548325	-3.682795e-05	1.491093e-04	3.686318e-05	3.379070e-05	
22.549325	-3.815074e-05	1.364696e-04	8.462195e-05	3.595230e-05	
22.550325	-3.458248e-05	1.193044e-04	9.624828e-05	2.778704e-05	
22.551326	-3.794148e-05	1.084483e-04	1.052227e-04	2.678611e-05	
22.552326	-4.327835e-05	1.121259e-04	1.188969e-04	3.401785e-05	
22.553326	-5.103542e-05	1.211220e-04	1.097362e-04	3.912019e-05	
22.554327	-5.961010e-05	1.165497e-04	9.667573e-05	4.573925e-05	
22.555327	-6.296752e-05	8.903312e-05	1.151795e-04	5.190204e-05	
22.556327	-6.351030e-05	4.025351e-05	1.423091e-04	6.313026e-05	
22.557328	-5.909653e-05	5.590539e-06	1.592092e-04	7.086851e-05	
22.558328	-4.899012e-05	2.605329e-05	1.688117e-04	6.506455e-05	
22.559328	-4.191942e-05	5.809788e-05	1.719955e-04	7.364746e-05	
22.560329	-3.042454e-05	7.226677e-05	2.199722e-04	8.690044e-05	
22.561329	-1.687675e-05	7.445779e-05	2.787610e-04	7.465468e-05	
22.562329	-2.503760e-05	1.449115e-05	2.253206e-04	6.136356e-05	
22.563330	-3.466061e-05	-6.759998e-05	1.431585e-04	5.761586e-05	
22.564330	-1.574849e-05	-1.023247e-04	1.394044e-04	4.255026e-05	
22.565330	1.160791e-06	-1.063844e-04	1.145654e-04	1.449388e-05	
22.566331	-8.290662e-06	-9.779575e-05	5.839763e-05	-7.351995e-06	
22.567331	-1.756369e-05	-1.149149e-04	4.430008e-05	-8.000508e-06	
22.568331	-1.440112e-05	-1.303314e-04	3.875781e-05	-8.092762e-07	
22.569331	-4.849995e-06	-9.719264e-05	1.294083e-05	-1.711750e-06	
22.570332	2.590705e-06	-5.894682e-05	-1.925756e-05	-7.599898e-06	
22.571332	-7.763703e-06	-3.237532e-05	-5.321278e-05	-1.139257e-05	
22.572332	-5.583239e-06	-2.505558e-05	-8.919578e-05	-1.473270e-05	
22.573333	1.200968e-05	-3.232221e-05	-1.101410e-04	-1.815684e-05	
22.574333	8.838514e-06	-2.714262e-05	-1.105731e-04	-1.309030e-05	
22.575333	2.254492e-05	-2.314333e-05	-1.097510e-04	-8.382715e-06	
22.576334	3.642055e-05	-1.853150e-05	-5.903734e-05	-1.696711e-05	
22.577334	8.686172e-06	-9.281233e-06	2.635323e-05	-2.919016e-05	
22.578334	1.156297e-05	-3.523412e-06	2.717654e-05	-3.960359e-05	
22.579335	6.078329e-05	4.489278e-06	-1.406173e-05	-5.424335e-05	
22.580335	1.010599e-04	6.027885e-06	-3.837432e-05	-6.463866e-05	
22.581335	1.053772e-04	1.790430e-06	-8.555803e-05	-6.500499e-05	
22.582336	6.330000e-05	-1.054664e-06	-1.126345e-04	-6.472035e-05	
22.583336	2.313661e-05	8.020185e-07	-9.498454e-05	-5.111015e-05	
22.584336	2.436235e-05	1.274306e-05	-7.540975e-05	-1.898334e-05	
22.585337	3.167772e-05	1.370930e-05	-5.768156e-05	6.128714e-06	
22.586337	2.296069e-05	1.753214e-05	-1.198059e-05	1.299270e-05	
22.587337	1.058621e-05	3.821764e-05	3.774034e-05	7.638794e-06	
22.588338	2.381360e-06	2.533314e-05	3.779085e-05	5.608386e-06	
22.589338	-1.043548e-07	-1.889341e-06	1.088734e-05	1.112513e-05	
22.590338	-1.782890e-07	3.106569e-07	-8.197446e-06	1.238229e-05	
22.591339	-8.506196e-06	1.983494e-06	-1.435382e-05	1.558379e-05	
22.592339	-3.210957e-05	-4.889675e-06	1.036257e-06	2.726492e-05	
22.593339	-5.469589e-05	-4.637189e-06	3.295753e-05	3.852991e-05	
22.594340	-6.934018e-05	-2.840341e-06	5.715201e-05	4.585122e-05	
22.595340	-7.027191e-05	-8.098825e-06	5.369394e-05	4.820806e-05	
22.596340	-3.634823e-05	-8.749002e-07	3.949915e-05	3.773330e-05	
22.597341	-2.230238e-05	2.370282e-05	3.124574e-05	1.732784e-05	
22.598341	-5.929311e-05	2.308814e-05	1.296935e-05	2.286755e-07	
22.599341	-7.359942e-05	4.780288e-06	-5.634345e-06	-9.759207e-06	
22.600342	-5.413630e-05	-4.976387e-06	-6.810009e-06	-1.571987e-05	
22.601342	-3.731975e-05	-6.983508e-06	-1.283305e-05	-1.978737e-05	
22.602342	-2.485418e-05	1.493216e-05	-2.516577e-05	-1.936645e-05	
22.603343	-1.084492e-05	3.386552e-05	-3.065624e-05	-1.834238e-05	
22.604343	7.453288e-08	4.440813e-05	-2.063767e-05	-1.305149e-05	
22.605343	4.169380e-06	4.791102e-05	-1.823680e-05	-5.099391e-06	
22.606344	2.463609e-05	1.776721e-05	-5.792053e-05	-1.608125e-05	
22.607344	5.210221e-05	3.170113e-05	-4.865213e-05	-1.649402e-05	
22.608344	6.252557e-05	5.477300e-05	1.473951e-05	5.578334e-06	
22.609345	6.699343e-05	8.643184e-06	8.624195e-06	4.601103e-06	
22.610345	5.948716e-05	-1.065639e-06	-1.885331e-05	-6.038548e-06	
22.611345	4.109509e-05	-4.953127e-06	-6.920473e-06	-5.574703e-06	
22.612345	2.626636e-05	-6.366266e-05	-9.526197e-07	-6.514305e-06	
22.613346	9.467577e-06	-9.608304e-05	-7.713581e-06	-6.123262e-06	
22.614346	-4.510719e-06	-1.136274e-04	4.422879e-07	-5.284985e-06	
22.615346	-1.656222e-06	-8.793835e-05	3.187871e-05	-3.439947e-06	
22.616347	7.398992e-06	3.701031e-05	4.319827e-05	2.522328e-06	
22.617347	-1.951554e-06	9.063597e-05	2.518615e-05	5.218983e-06	
22.618347	-2.331030e-05	-9.901093e-06	2.805955e-05	5.365636e-06	
22.619348	-3.357915e-05	-6.625041e-05	4.094127e-05	1.051808e-05	
22.620348	-3.222493e-05	-1.969453e-05	2.924760e-05	1.300359e-05	
22.621348	-2.231774e-05	1.893496e-05	1.192323e-05	9.860707e-06	
22.622349	-1.108774e-05	2.501000e-05	8.113597e-06	9.252422e-06	
22.623349	-1.285037e-05	1.304171e-05	1.210189e-05	7.871652e-06	
22.624349	-1.668149e-05	5.535834e-06	6.228248e-06	5.676979e-06	
22.625350	-1.124009e-05	1.034307e-05	-6.225874e-06	4.000059e-06	
22.626350	-7.691073e-06	7.460610e-06	-1.165700e-05	3.662594e-06	
22.627350	-1.091650e-05	1.343456e-05	-2.310991e-05	5.253868e-06	
22.628351	-1.659462e-05	2.564254e-05	-1.540798e-05	2.909378e-06	
22.629351	-1.739221e-05	6.172417e-06	1.248664e-05	7.041511e-07	
22.630351	-1.663344e-05	-1.531215e-05	2.021045e-05	1.645170e-06	
22.631352	-1.605161e-05	-2.470322e-05	1.956707e-05	9.194000e-07	
22.632352	-1.177955e-05	-2.767744e-05	1.332550e-05	-4.027083e-06	
22.633352	-8.467146e-06	1.063481e-06	7.799334e-06	-6.144196e-06	
22.634353	1.140225e-05	-1.636008e-05	-2.349517e-05	-1.138844e-05	
22.635353	1.454985e-05	-1.999929e-05	-5.205407e-05	-1.392627e-05	
22.636353	4.036318e-05	-1.365226e-05	-9.267899e-05	-3.092768e-05	
22.637354	1.791475e-04	-1.479393e-04	-3.175757e-04	-1.346722e-04	
22.638354	1.793575e-04	-4.202440e-05	-3.562176e-04	-1.540731e-04	
22.639354	-3.464314e-05	2.870442e-04	4.911490e-05	4.465468e-05	
22.640355	-1.124252e-04	2.437743e-04	2.543555e-04	1.491670e-04	
22.641355	-5.123064e-05	4.123920e-05	1.465134e-04	8.244438e-05	
22.642355	-4.717211e-06	-9.755693e-06	1.225070e-04	5.806458e-05	
22.643356	3.991869e-05	-3.981318e-05	1.064569e-04	4.799285e-05	
22.644356	4.579809e-05	-5.447122e-05	6.531179e-05	2.416648e-05	
22.645356	3.789930e-05	-5.784734e-05	6.695365e-05	1.740463e-05	
22.646357	3.088677e-05	-2.267173e-05	5.276626e-05	8.027996e-06	
22.647357	4.160095e-06	1.912803e-05	2.668508e-05	3.794415e-06	
22.648357	-4.496057e-06	-1.750622e-05	1.475090e-05	-1.311878e-06	
22.649358	-8.700401e-06	-4.174919e-05	4.820491e-06	-5.712256e-06	
22.650358	-2.170962e-05	-2.429980e-05	-9.424067e-06	-5.677074e-06	
22.651358	-2.530477e-05	-1.507944e-05	-1.298899e-05	-1.068213e-05	
22.652358	-2.680037e-05	-7.117944e-06	-1.193621e-05	-1.296805e-05	
22.653359	-2.885773e-05	-6.728803e-06	-1.525782e-05	-1.445954e-05	
22.654359	-2.780468e-05	-3.197794e-06	-9.779249e-06	-1.546138e-05	
22.655359	-2.533518e-05	1.172094e-05	-2.998936e-07	-1.297391e-05	
22.656360	-2.334105e-05	1.434958e-05	2.980289e-06	-1.536345e-05	
22.657360	-2.056323e-05	5.631294e-06	1.640953e-06	-1.703198e-05	
22.658360	-1.573864e-05	-1.252373e-05	-1.035302e-06	-1.480699e-05	
22.659361	-1.229475e-05	-2.890041e-05	-1.107411e-05	-1.509825e-05	
22.660361	-1.020244e-05	-2.583768e-05	-3.403716e-05	-1.279785e-05	
22.661361	-6.999578e-06	-2.288911e-05	-4.415579e-05	-4.112670e-06	
22.662362	-3.122820e-06	-1.977985e-05	-1.698443e-05	6.729359e-06	
22.663362	2.651501e-07	-6.317109e-06	2.265209e-05	1.082321e-05	
22.664362	8.390295e-07	-3.068625e-06	4.088630e-05	7.305001e-06	
22.665363	-5.956246e-07	-5.464273e-06	3.780141e-05	4.583573e-06	
22.666363	4.921376e-06	4.684843e-07	2.105495e-05	2.385537e-06	
22.667363	1.179231e-05	5.836806e-07	-3.494052e-06	-2.241540e-06	
22.668364	4.882186e-06	5.074764e-07	-3.006632e-05	-5.821970e-06	
22.669364	-3.122497e-06	1.666545e-05	-6.261364e-05	-5.137185e-06	
22.670364	-1.139440e-06	2.573608e-05	-7.696874e-05	-4.494512e-06	
22.671365	1.131086e-08	1.822989e-05	-5.751386e-05	-4.584760e-06	
22.672365	-3.530416e-06	1.483897e-05	-4.175791e-05	-3.855574e-06	
22.673365	-6.763246e-06	1.279324e-05	-3.235689e-05	-2.585412e-06	
22.674366	-5.032679e-06	1.235884e-05	-1.322414e-05	3.600031e-06	
22.675366	-3.613698e-06	1.318166e-05	-1.538386e-07	7.139730e-06	
22.676366	-5.485391e-06	6.683661e-06	9.607991e-06	4.668273e-06	
22.677367	-7.605787e-06	8.332254e-06	2.030146e-05	4.528350e-06	
22.678367	-1.077941e-05	1.327267e-05	2.186106e-05	5.191832e-06	
22.679367	-9.511619e-06	3.585760e-06	1.744831e-05	5.837067e-06	
22.680368	-7.184084e-06	-7.022988e-06	1.288687e-05	4.854399e-06	
22.681368	-6.532252e-06	-5.932432e-06	-4.271154e-06	2.886913e-06	
22.682368	-1.470079e-06	3.483208e-06	-2.455548e-05	3.993637e-06	
22.683369	1.647492e-06	5.820958e-06	-7.442968e-06	3.837703e-06	
22.684369	2.278804e-06	-7.589667e-06	2.508071e-05	1.794966e-06	
22.685369	4.509529e-06	-1.531633e-05	2.975835e-05	5.470966e-07	
22.686370	1.272753e-05	-5.036761e-06	2.611720e-05	-2.334590e-06	
22.687370	2.916005e-05	4.777695e-06	2.524234e-05	-7.740560e-06	
22.688370	3.644777e-05	3.872825e-06	1.315598e-05	-8.797525e-06	
22.689371	3.142516e-05	-1.186896e-06	-3.683989e-06	-5.122782e-06	
22.690371	2.670631e-05	-3.026097e-07	-1.989845e-05	-4.134800e-06	
22.691371	1.829500e-05	1.522972e-05	-3.538412e-05	-2.233430e-06	
22.692372	6.622981e-06	2.212275e-05	-2.683941e-05	1.409927e-06	
22.693372	1.785450e-06	1.277181e-05	3.717913e-06	2.949660e-06	
22.694372	3.859327e-06	2.814210e-05	2.791969e-05	4.208275e-06	
22.695372	1.069612e-05	4.453092e-05	5.036033e-05	4.935469e-06	
22.696373	1.842039e-05	1.256930e-05	5.137488e-05	5.320991e-06	
22.697373	1.819116e-05	-2.962591e-05	2.812043e-05	4.579466e-06	
22.698373	1.310019e-05	-4.460828e-05	2.343888e-05	4.936630e-06	
22.699374	1.141558e-05	-4.487811e-05	5.935486e-06	7.482619e-06	
22.700374	9.146087e-06	-5.095476e-05	-3.244465e-05	4.385301e-06	
22.701374	-7.052755e-07	-6.702098e-05	-4.367607e-05	9.224960e-07	
22.702375	-1.422359e-05	-4.436589e-05	-4.258335e-05	6.408153e-06	
22.703375	-2.148107e-05	9.782479e-06	-9.017675e-06	8.325496e-06	
22.704375	-2.050816e-05	7.975814e-06	6.762749e-05	-7.082297e-08	
22.705376	-1.483169e-05	-1.939522e-05	1.052127e-04	-5.256106e-06	
22.706376	-9.279904e-06	-5.210067e-06	1.073739e-04	-4.142235e-06	
22.707376	-7.974560e-06	1.540536e-05	9.879639e-05	-3.967804e-06	
22.708377	-1.201396e-05	6.420247e-06	3.487705e-05	-5.317755e-06	
22.709377	-1.775686e-05	-9.372945e-06	-4.766489e-05	-3.666621e-06	
22.710377	-1.830217e-05	2.079545e-05	-9.943592e-05	2.625595e-06	
22.711378	-1.941556e-05	5.898723e-05	-1.246581e-04	6.415777e-06	
22.712378	-2.615862e-05	3.456823e-05	-1.188496e-04	3.280956e-06	
22.713378	-2.997378e-05	-3.676737e-06	-8.273741e-05	-2.245409e-06	
22.714379	-2.573236e-05	-1.123688e-05	-2.631699e-05	-3.677000e-06	
22.715379	-1.798590e-05	-1.559575e-06	1.416101e-05	-1.956832e-06	
22.716379	-1.350967e-05	3.486709e-06	2.560160e-05	-2.254456e-06	
22.717380	-8.922782e-06	-6.232601e-06	3.603876e-05	-2.298448e-06	
22.718380	-2.731386e-06	-7.166889e-06	4.327505e-05	2.405689e-08	
22.719380	1.407644e-06	-5.559911e-06	2.666804e-05	-1.044456e-06	
22.720381	8.783848e-07	1.243629e-05	-6.438075e-06	-4.814563e-06	
22.721381	2.729597e-06	3.740821e-05	-2.715983e-05	3.914728e-07	
22.722381	2.367105e-05	-8.066433e-06	-6.972664e-05	-1.204628e-05	
22.723382	3.926057e-05	-3.893651e-05	-1.224991e-04	-4.523075e-05	
22.724382	2.087392e-05	3.954484e-05	-4.793879e-05	-1.642569e-05	
22.725382	9.541441e-06	6.794629e-05	4.727639e-05	2.820421e-05	
22.726383	3.962027e-05	-3.679141e-05	-4.970958e-05	-2.305168e-05	
22.727383	5.339377e-05	-6.165153e-05	-1.183529e-04	-5.783481e-05	
22.728383	1.635901e-05	5.281263e-05	1.354502e-05	3.202824e-06	
22.729384	-4.720176e-06	8.263481e-05	1.028026e-04	4.078686e-05	
22.730384	2.960987e-06	2.408378e-05	8.244777e-05	2.924165e-05	
22.731384	2.071903e-06	6.252185e-06	6.932127e-05	2.177038e-05	
22.732385	-8.134623e-07	-4.347810e-06	5.651352e-05	1.521964e-05	
22.733385	-4.985422e-06	-1.824495e-05	4.353178e-05	1.123209e-05	
22.734385	-6.501419e-06	-1.750088e-05	3.564990e-05	1.007576e-05	
22.735385	-7.556901e-06	-1.642483e-05	2.545250e-05	5.009159e-06	
22.736386	-1.344220e-05	-1.869415e-05	2.580204e-05	1.782924e-06	
22.737386	-1.180899e-05	-2.171641e-05	2.450880e-05	8.241483e-08	
22.738386	-1.148888e-05	-1.897649e-05	1.640251e-05	-2.723371e-06	
22.739387	-1.101742e-05	-1.828953e-05	6.890626e-06	-2.907375e-06	
22.740387	-5.126784e-06	-1.611401e-05	-2.952863e-06	-1.953907e-07	
22.741387	-2.482832e-06	-1.102737e-05	-8.276048e-06	-2.122132e-06	
22.742388	-3.896931e-07	-9.333907e-06	-1.719008e-05	-2.907152e-06	
22.743388	-1.773530e-06	-4.464403e-06	-1.444487e-05	1.018952e-06	
22.744388	-5.420253e-06	-5.061060e-06	1.614036e-05	5.522593e-07	
22.745389	-6.091688e-06	-6.159727e-06	3.095420e-05	-1.296502e-06	
22.746389	-5.574226e-06	3.844644e-06	1.723925e-05	-1.710053e-06	
22.747389	-4.392018e-06	9.720192e-06	8.203481e-06	1.018300e-06	
22.748390	-3.313765e-06	4.308401e-06	-6.816783e-06	3.501412e-06	
22.749390	-1.281919e-06	-2.025286e-06	-4.074017e-05	2.879519e-06	
22.750390	2.269492e-06	-5.710292e-06	-7.293053e-05	6.345707e-06	
22.751391	6.735646e-06	-2.045045e-05	-6.893547e-05	4.691601e-06	
22.752391	5.894321e-06	-3.656050e-05	-2.038121e-05	1.046533e-06	
22.753391	3.144547e-06	-3.594942e-05	1.007049e-05	3.392688e-06	
22.754392	4.881646e-06	-2.361633e-05	-2.058317e-06	-9.285251e-09	
22.755392	3.249074e-06	1.563694e-05	-9.720443e-06	-3.421953e-07	
22.756392	4.830774e-06	5.285338e-05	-1.690296e-05	3.603776e-06	
22.757393	7.063887e-06	4.102052e-05	-2.565296e-05	-2.876959e-07	
22.758393	4.430502e-06	2.157053e-05	-1.733857e-05	-2.846174e-06	
22.759393	1.105650e-05	1.920826e-05	-1.961871e-05	-9.002889e-07	
22.760394	1.244414e-05	1.104480e-05	-1.611432e-05	7.922788e-08	
22.761394	4.791188e-06	4.157144e-07	1.213036e-05	-2.217809e-06	
22.762394	3.553555e-06	4.795140e-06	2.564782e-05	-7.878219e-06	
22.763395	-5.035549e-06	1.881685e-05	3.496030e-05	-1.033423e-05	
22.764395	-1.631183e-05	1.428322e-05	4.862283e-05	-7.832261e-06	
22.765395	-1.742136e-05	2.243241e-06	4.790581e-05	-7.569009e-06	
22.766396	-1.790428e-05	9.063144e-06	4.311004e-05	-1.029656e-05	
22.767396	-1.657907e-05	1.918697e-05	2.221131e-05	-8.192300e-06	
22.768396	-1.219481e-05	1.689552e-05	-3.733013e-06	-4.099060e-06	
22.769397	-8.166234e-06	5.744112e-06	-1.326496e-05	-4.507483e-06	
22.770397	-4.601802e-06	-8.187982e-06	-2.419330e-05	-5.504422e-06	
22.771397	-5.111423e-06	-2.161647e-05	-1.847181e-05	-5.294768e-06	
22.772398	-2.413221e-06	-2.868455e-05	4.857627e-06	-4.713835e-06	
22.773398	5.065379e-06	-2.250062e-05	1.342611e-05	-3.501195e-06	
22.774398	6.042900e-06	-1.327873e-05	3.675988e-06	-2.264901e-06	
22.775399	7.825561e-06	-1.251932e-05	-1.806673e-05	-2.945921e-07	
22.776399	1.217899e-05	-1.293458e-05	-3.510097e-05	2.082621e-06	
22.777399	1.014827e-05	-1.491238e-05	-6.062526e-05	3.030205e-06	
22.778399	1.029147e-05	-1.746993e-05	-7.743690e-05	4.609326e-06	
22.779400	1.343898e-05	-4.456169e-06	-3.632380e-05	6.957893e-06	
22.780400	1.058614e-05	1.022922e-05	1.554507e-06	5.347808e-06	
22.781400	5.760847e-06	1.253068e-05	7.327347e-06	5.014239e-06	
22.782401	7.469470e-06	1.511417e-05	2.177998e-05	9.643121e-06	
22.783401	1.023706e-05	1.253354e-05	2.228612e-05	1.072950e-05	
22.784401	5.839807e-06	5.139273e-06	1.544210e-05	8.359690e-06	
22.785402	3.319093e-06	3.258497e-07	2.197970e-05	8.307594e-06	
22.786402	2.930620e-06	-6.499769e-06	2.512042e-05	8.774655e-06	
22.787402	-8.798380e-07	-3.706303e-06	2.748493e-05	6.871194e-06	
22.788403	-7.158451e-07	9.156440e-06	2.500244e-05	4.205000e-06	
22.789403	-1.335616e-06	7.398369e-06	1.407979e-05	3.375671e-06	
22.790403	-3.373670e-06	-5.167226e-06	9.985609e-06	3.789139e-06	
22.791404	4.949487e-07	1.262527e-06	9.676639e-06	4.284487e-06	
22.792404	-2.282262e-07	1.567712e-05	7.201309e-06	3.942684e-06	
22.793404	-6.926017e-06	8.666942e-06	8.302863e-06	1.806392e-06	
22.794405	-1.146339e-05	-8.636814e-06	7.712175e-06	1.832923e-06	
22.795405	-1.293279e-05	-1.782242e-05	7.587442e-06	4.994383e-06	
22.796405	-1.084070e-05	-8.301986e-06	1.564426e-05	3.841046e-06	
22.797406	-9.782557e-06	7.246885e-07	1.813079e-05	-4.176004e-07	
22.798406	-9.778737e-06	-1.739732e-05	1.045124e-05	-1.420253e-06	
22.799406	-7.735157e-06	-2.098010e-05	8.404079e-06	-4.365189e-06	
22.800407	-5.496853e-06	2.185396e-06	2.053573e-05	-8.273190e-06	
22.801407	-3.160064e-06	1.581259e-05	3.529504e-05	-5.745449e-06	
22.802407	-2.443730e-06	1.624534e-05	3.342167e-05	-6.428271e-06	
22.803408	-4.981310e-06	1.472530e-06	2.775308e-05	-1.074764e-05	
22.804408	-6.874908e-06	-3.860489e-06	3.128873e-05	-7.949426e-06	
22.805408	-5.389432e-06	2.089580e-05	1.034157e-05	-4.786888e-06	
22.806409	-4.887905e-06	3.970089e-05	-4.911881e-05	-3.012568e-06	
22.807409	-4.553643e-06	3.172264e-05	-1.023056e-04	-2.567093e-06	
22.808409	-3.604949e-06	2.455279e-05	-9.062801e-05	-1.389632e-06	
22.809410	3.271260e-07	1.278146e-05	-5.225737e-05	-1.176092e-06	
22.810410	8.481933e-07	-3.868194e-06	-3.766790e-05	-5.748285e-06	
22.811410	-6.508703e-06	-7.516313e-06	-9.704401e-06	-1.639190e-07	
22.812411	1.069929e-05	-5.768870e-05	-3.114304e-05	-1.469904e-05	
22.813411	1.481834e-05	-5.319630e-05	-3.230421e-05	-1.914213e-05	
22.814411	5.616820e-06	-3.333651e-05	1.541158e-05	6.915023e-06	
22.815412	6.644123e-05	-1.862111e-04	-1.382907e-04	-5.924569e-05	
22.816412	8.589376e-05	-1.476164e-04	-2.249450e-04	-1.051163e-04	
22.817412	8.025580e-06	1.114813e-04	-9.894988e-08	6.099038e-06	
22.818412	-2.757281e-05	1.317407e-04	1.317110e-04	7.605221e-05	
22.819413	-1.516023e-05	3.475581e-05	9.091495e-05	4.567956e-05	
22.820413	-2.844438e-06	1.070716e-05	5.462195e-05	2.389957e-05	
22.821413	4.159470e-05	-5.414231e-05	-8.918957e-05	-3.939389e-05	
22.822414	7.672688e-05	-8.822045e-05	-2.294503e-04	-1.054207e-04	
22.823414	-5.910335e-06	1.006265e-04	-1.011357e-05	1.596097e-06	
22.824414	-9.735878e-05	2.488465e-04	2.619023e-04	1.341684e-04	
22.825415	-6.497988e-05	1.134499e-04	1.919433e-04	9.562625e-05	
22.826415	-3.410124e-05	1.952846e-05	1.094092e-04	4.615805e-05	
22.827415	-3.800161e-05	1.376201e-05	1.175355e-04	4.380532e-05	
22.828416	-2.050480e-05	-3.332491e-05	7.913385e-05	2.075674e-05	
22.829416	-1.257843e-05	-3.985565e-05	6.280303e-05	7.916509e-06	
22.830416	-7.816805e-06	-5.137789e-05	4.733496e-05	-1.679420e-06	
22.831417	3.680184e-08	-5.675463e-05	3.303428e-05	-1.005884e-05	
22.832417	5.078235e-06	-3.315851e-05	2.050655e-05	-1.207312e-05	
22.833417	1.085035e-05	-3.203780e-05	-8.445254e-06	-1.733869e-05	
22.834418	1.030173e-05	-1.950478e-05	-1.382480e-05	-2.237813e-05	
22.835418	5.904045e-06	3.031212e-06	-2.068387e-05	-2.548303e-05	
22.836418	3.381776e-06	6.129215e-06	-4.834870e-05	-2.015185e-05	
22.837419	6.333300e-06	4.612244e-06	-7.338516e-05	-1.733535e-05	
22.838419	8.282693e-06	-1.113693e-07	-8.454576e-05	-1.711910e-05	
22.839419	5.066927e-06	-5.316180e-06	-7.278703e-05	-1.144433e-05	
22.840420	5.962155e-06	-3.325700e-06	-4.449839e-05	-1.246943e-05	
22.841420	1.052708e-05	2.190815e-07	-1.187950e-05	-1.347831e-05	
22.842420	1.088145e-05	1.797093e-06	1.560424e-05	-8.615978e-06	
22.843421	1.050563e-05	-1.504534e-05	2.822425e-05	-7.815319e-06	
22.844421	1.270518e-05	-3.828966e-05	1.955081e-05	-6.840590e-06	
22.845421	8.254705e-06	-2.703859e-05	-7.020904e-06	-3.505892e-06	
22.846422	1.038222e-07	-7.299155e-06	-3.659534e-05	-2.435535e-06	
22.847422	6.298707e-07	-1.123986e-05	-7.346685e-05	-9.329815e-07	
22.848422	2.902324e-06	-1.086521e-05	-9.446972e-05	4.188204e-06	
22.849423	5.776248e-07	1.760059e-06	-6.839720e-05	8.317509e-06	
22.850423	1.941924e-07	1.205152e-05	-3.551538e-05	5.629288e-06	
22.851423	2.230154e-06	1.521734e-05	-1.280697e-05	3.729801e-06	
22.852424	1.485922e-06	1.115535e-05	8.549832e-06	6.796675e-06	
22.853424	-1.581141e-06	7.008835e-06	1.489487e-05	6.095736e-06	
22.854424	-2.499468e-06	2.965264e-06	1.774471e-05	5.347763e-06	
22.855425	-3.313795e-06	3.975361e-06	1.821136e-05	7.662394e-06	
22.856425	-4.107675e-06	1.396509e-05	1.579104e-05	4.371479e-06	
22.857425	-3.466734e-06	1.888791e-05	2.067519e-05	-4.044866e-07	
22.858426	-6.447299e-06	1.426624e-05	2.380154e-05	-1.958872e-06	
22.859426	-7.993962e-06	7.401939e-06	3.462404e-05	-3.177176e-06	
22.860426	-2.379249e-06	4.480622e-06	5.338636e-05	-8.305596e-07	
22.861426	2.990679e-06	4.821646e-06	5.566655e-05	1.388041e-06	
22.862427	2.160008e-06	8.874202e-07	4.473942e-05	-2.256182e-07	
22.863427	-2.095002e-06	-5.519901e-06	3.204326e-05	2.033904e-06	
22.864427	-2.970573e-06	-8.738025e-06	1.164387e-05	4.841181e-06	
22.865428	-2.556833e-06	-7.032685e-06	-2.344531e-05	2.137904e-06	
22.866428	-4.095725e-06	-1.310478e-06	-4.849822e-05	1.565586e-06	
22.867428	-1.233974e-06	1.666028e-06	-3.203391e-05	2.694452e-06	
22.868429	3.122722e-06	6.008037e-06	-6.009641e-06	1.893064e-06	
22.869429	7.058825e-07	1.529563e-05	-4.714890e-06	2.430048e-06	
22.870429	-1.826084e-06	1.206077e-05	-5.151279e-06	5.124724e-08	
22.871430	1.631000e-06	-3.950322e-06	6.042020e-06	-3.763655e-06	
22.872430	6.436143e-07	-6.863585e-06	2.008473e-05	-3.635595e-06	
22.873430	-7.184428e-06	6.321559e-06	3.010806e-05	-2.904874e-06	
22.874431	-1.008219e-05	1.117941e-05	2.691835e-05	-2.906519e-07	
22.875431	-8.230418e-06	4.809095e-06	1.726545e-05	2.432508e-06	
22.876431	-7.151099e-06	-1.462786e-06	7.453175e-06	8.224486e-07	
22.877432	-6.991013e-06	-7.858429e-06	-6.834308e-06	-1.025662e-06	
22.878432	-5.166713e-06	-3.458510e-06	-1.021532e-05	-2.440083e-06	
22.879432	-3.894250e-07	1.015670e-05	6.510698e-06	-3.947200e-06	
22.880433	3.647883e-06	1.397755e-05	2.331016e-05	-2.785565e-06	
22.881433	1.071714e-05	4.614775e-06	1.633904e-05	-2.507270e-06	
22.882433	1.858531e-05	-1.143137e-05	-7.374335e-06	-4.797712e-06	
22.883434	1.815329e-05	-2.249674e-05	-2.408394e-05	-2.264433e-06	
22.884434	1.299938e-05	-2.672932e-05	-4.123192e-05	2.906197e-06	
22.885434	8.132939e-06	-2.300771e-05	-5.852830e-05	3.913308e-06	
22.886435	6.889202e-06	-1.369461e-05	-5.886259e-05	5.400534e-06	
22.887435	5.733890e-06	-1.153635e-05	-3.688281e-05	5.767252e-06	
22.888435	1.394203e-06	-4.688708e-06	9.068380e-06	5.107954e-06	
22.889436	-1.306962e-06	-5.938445e-07	4.834461e-05	8.475142e-06	
22.890436	-4.737443e-06	-1.851346e-05	6.134012e-05	5.539436e-06	
22.891436	-8.454660e-06	-2.114748e-05	6.337946e-05	-2.423732e-06	
22.892437	-1.009829e-05	6.907807e-06	5.520085e-05	-2.593234e-06	
22.893437	-1.118043e-05	2.130529e-05	2.054075e-05	-3.945853e-07	
22.894437	-9.743806e-06	9.379017e-06	-5.472613e-05	-1.554782e-06	
22.895438	-8.469259e-06	1.496560e-06	-1.128136e-04	-1.526995e-06	
22.896438	-8.347617e-06	1.804082e-05	-9.694522e-05	-8.259789e-07	
22.897438	-2.059067e-06	5.180259e-05	-5.694320e-05	-2.657201e-06	
22.898439	1.016075e-05	7.401964e-05	-2.695179e-05	-2.966951e-06	
22.899439	1.556989e-05	6.314058e-05	-1.911779e-06	-2.432247e-06	
22.900439	1.102157e-05	2.976206e-05	1.266423e-05	-4.223973e-06	
22.901439	8.177962e-06	-6.502143e-06	2.523678e-05	-1.476440e-06	
22.902440	7.299372e-06	-4.514260e-05	3.364394e-05	2.409650e-06	
22.903440	1.785748e-06	-6.587898e-05	3.785370e-05	-8.382506e-07	
22.904440	-2.777872e-06	-4.091991e-05	4.064960e-05	-4.544656e-06	
22.905441	-3.244633e-06	-1.076032e-05	3.813956e-05	-2.323911e-06	
22.906441	-5.745127e-06	-1.735389e-05	3.851615e-05	2.591826e-08	
22.907441	-8.050776e-06	-3.371014e-05	3.255623e-05	-3.207926e-06	
22.908442	-4.359820e-06	-3.246843e-05	2.012053e-05	-3.936870e-06	
22.909442	-1.410855e-06	-2.191784e-05	1.752234e-05	-8.337985e-08	
22.910442	-3.740306e-06	-1.332325e-05	1.498273e-05	1.108058e-06	
22.911443	-4.497777e-06	-8.448059e-06	-5.354110e-07	3.819305e-07	
22.912443	-3.192236e-06	-4.042685e-06	-2.740887e-05	-1.695638e-06	
22.913443	-4.542230e-06	2.820697e-06	-3.941262e-05	-1.766225e-06	
22.914444	-4.206446e-06	5.033757e-06	-2.384977e-05	1.193246e-07	
22.915444	-1.967506e-06	8.369215e-07	-3.632147e-06	-2.830824e-07	
22.916444	-2.885476e-06	-4.143551e-06	1.033070e-05	5.347445e-07	
22.917445	-3.053135e-06	1.352733e-05	1.117583e-05	3.387825e-06	
22.918445	-2.250934e-06	5.721982e-05	1.053780e-05	6.608228e-06	
22.919445	-1.634271e-06	5.702590e-05	1.972852e-05	6.430265e-06	
22.920446	1.595261e-07	2.015417e-05	1.284630e-05	3.925456e-06	
22.921446	-3.713405e-08	2.749304e-05	-1.427801e-05	4.517211e-06	
22.922446	-2.441343e-07	4.174504e-05	-4.274278e-05	3.636872e-06	
22.923447	9.464608e-07	1.591749e-05	-5.092489e-05	-4.794395e-08	
22.924447	3.039292e-07	-6.251489e-06	-3.500820e-05	-1.651498e-06	
22.925447	-6.939328e-07	-9.463977e-06	-2.567361e-05	7.583363e-08	
22.926448	2.245940e-06	-9.937285e-06	-2.050823e-05	9.472533e-07	
22.927448	6.239581e-06	-7.487285e-06	-1.539080e-06	-2.114470e-06	
22.928448	4.299721e-06	-1.082072e-05	7.769246e-06	-3.166186e-06	
22.929449	6.208020e-07	-1.229204e-05	8.477959e-06	-1.209666e-06	
22.930449	2.254322e-06	9.168854e-07	2.518726e-05	-2.644808e-06	
22.931449	3.760018e-06	-2.796675e-06	3.529577e-05	-3.586463e-06	
22.932450	9.895194e-07	-2.045329e-05	2.623242e-05	-6.258732e-07	
22.933450	1.490735e-06	-1.235915e-05	1.828003e-05	-1.375599e-06	
22.934450	4.302419e-06	1.840063e-06	1.334327e-05	-3.130606e-06	
22.935451	4.885008e-06	-1.681660e-06	1.357300e-05	-2.236912e-06	
22.936451	7.761281e-06	-8.321122e-06	1.353631e-05	-3.387169e-06	
22.937451	8.745636e-06	-1.558327e-05	2.067234e-06	-8.198038e-07	
22.938452	5.338596e-06	-2.575490e-05	-6.930486e-06	3.737924e-06	
22.939452	2.878324e-06	-2.260403e-05	-5.707419e-06	2.970178e-06	
22.940452	2.877617e-06	-1.995793e-06	-4.796704e-07	2.047785e-06	
22.941453	4.857643e-06	8.052591e-06	3.608712e-06	3.393763e-08	
22.942453	4.635102e-06	-1.240616e-06	-4.639452e-07	-3.047481e-06	
22.943453	3.726046e-06	-4.626139e-06	-3.358943e-06	-2.599312e-07	
22.944453	4.222453e-06	4.836766e-06	4.089576e-06	5.318151e-06	
22.945454	3.511124e-06	8.440376e-06	6.929537e-06	6.961411e-06	
22.946454	3.091373e-06	-5.013442e-07	2.061185e-06	3.969383e-06	
22.947454	6.819515e-07	-5.578682e-06	-4.154268e-06	-4.399267e-07	
22.948455	-1.092864e-06	-1.060676e-06	-1.525578e-05	-5.001025e-06	
22.949455	1.155985e-06	4.546833e-06	-2.762507e-05	-6.891131e-06	
22.950455	-4.847628e-07	4.789057e-06	-3.310599e-05	-2.640691e-06	
22.951456	-2.823021e-06	-5.327094e-06	-3.037680e-05	9.632795e-07	
22.952456	-1.074081e-07	-1.600855e-05	-2.775150e-05	6.897419e-07	
22.953456	-3.222637e-07	-1.605831e-05	-2.124914e-05	1.182377e-06	
22.954457	-7.679438e-07	-1.062848e-05	-7.018070e-06	9.162423e-07	
22.955457	3.547440e-06	-9.768873e-06	-1.920717e-07	-3.362644e-06	
22.956457	2.381048e-06	-4.098457e-06	6.352762e-06	-6.386745e-06	
22.957458	-8.488749e-07	1.667949e-05	1.805100e-05	-8.631596e-07	
22.958458	-1.218943e-06	2.230480e-05	2.074418e-05	4.987792e-06	
22.959458	-6.970495e-06	1.270502e-05	2.033094e-05	5.416589e-06	
22.960459	-9.578421e-06	2.562114e-05	2.227128e-05	6.138840e-06	
22.961459	-9.495344e-06	3.721066e-05	2.497939e-05	5.387497e-06	
22.962459	-1.614717e-05	1.758339e-05	2.833178e-05	4.695425e-06	
22.963460	-1.755157e-05	-8.112214e-07	2.167922e-05	5.999049e-06	
22.964460	-1.544550e-05	1.191598e-06	9.066663e-06	5.837736e-06	
22.965460	-1.937348e-05	8.149549e-07	5.297828e-06	1.389645e-06	
22.966461	-2.144507e-05	3.914535e-07	6.004462e-06	-5.433907e-06	
22.967461	-2.079384e-05	1.533897e-05	8.304990e-07	-6.235294e-06	
22.968461	-2.256386e-05	2.067357e-05	-1.297396e-05	-7.480969e-06	
22.969462	-2.376648e-05	1.673602e-06	-2.363753e-05	-1.201571e-05	
22.970462	-2.537020e-05	-1.354245e-05	-1.981476e-05	-9.356353e-06	
22.971462	-2.754862e-05	-6.738613e-06	-1.361834e-05	-5.265801e-06	
22.972463	-2.331826e-05	2.335233e-06	-1.386073e-05	-1.915232e-06	
22.973463	-2.099432e-05	-7.081352e-06	-1.574055e-05	3.352308e-06	
22.974463	-2.323373e-05	-1.769378e-05	-1.480678e-05	4.489023e-06	
22.975464	-1.554714e-05	-1.487726e-05	-8.435533e-06	4.798066e-06	
22.976464	-4.118671e-06	-1.445577e-05	-1.008823e-06	7.021189e-06	
22.977464	9.694158e-06	-1.261305e-05	4.995903e-06	9.784838e-06	
22.978465	3.399428e-05	-3.492248e-06	1.148947e-05	1.154606e-05	
22.979465	5.605324e-05	-9.860801e-07	1.547779e-05	6.673418e-06	
22.980465	7.072166e-05	3.354489e-06	1.542917e-05	1.320183e-06	
22.981466	7.367458e-05	5.407197e-06	1.315130e-05	-9.630316e-07	
22.982466	5.780635e-05	-5.072266e-06	6.682501e-06	-1.005425e-05	
22.983466	4.122122e-05	-4.623746e-06	1.849855e-06	-2.071258e-05	
22.984466	3.256002e-05	6.134371e-06	7.638535e-06	-2.063654e-05	
22.985467	1.607492e-05	6.154772e-06	1.510162e-05	-1.365304e-05	
22.986467	-2.838144e-06	-3.762515e-06	1.791057e-05	-6.835146e-06	
22.987467	-1.903924e-06	-7.355637e-06	2.021366e-05	-1.533178e-06	
22.988468	9.710914e-06	2.315303e-06	1.862714e-05	1.864465e-06	
22.989468	1.352273e-05	1.002368e-05	8.514217e-06	6.404622e-06	
22.990468	1.650041e-05	1.568580e-05	-6.530630e-06	1.072587e-05	
22.991469	1.773924e-05	2.485342e-05	-2.274351e-05	9.602339e-06	
22.992469	1.427768e-05	2.204190e-05	-4.089654e-05	7.067826e-06	
22.993469	1.519079e-05	-2.955140e-07	-4.659073e-05	6.384660e-06	
22.994470	1.420884e-05	-2.816602e-05	-3.087425e-05	4.923587e-06	
22.995470	1.004347e-05	-3.503264e-05	-1.474670e-05	2.065509e-06	
22.996470	1.005631e-05	-2.611788e-05	-6.372204e-06	-7.978709e-09	
22.997471	9.334628e-06	-2.158617e-05	-1.031737e-06	4.150044e-08	
22.998471	3.734718e-06	-1.216811e-05	-8.362310e-07	7.039015e-07	
22.999471	-1.160080e-05	-1.708426e-05	5.830462e-07	2.248499e-06	
23.000472	-2.811287e-05	-3.550646e-05	4.288221e-06	2.799441e-06	
23.001472	-3.250266e-05	-1.820539e-05	5.716070e-06	-6.754881e-07	
23.002472	-3.554345e-05	1.652404e-05	5.149886e-06	-3.130629e-06	
23.003473	-3.895875e-05	2.767388e-05	4.091074e-06	3.813975e-07	
23.004473	-3.945924e-05	2.096098e-05	6.792108e-06	4.753964e-06	
23.005473	-4.324499e-05	1.377436e-05	7.762296e-06	4.998005e-06	
23.006474	-4.297544e-05	1.641419e-05	4.507327e-06	6.093129e-06	
23.007474	-3.627308e-05	1.762034e-05	5.521063e-06	7.371678e-06	
23.008474	-3.100060e-05	1.153866e-05	7.058393e-06	2.722210e-06	
23.009475	-2.749311e-05	7.748751e-06	5.749055e-06	-1.085109e-06	
23.010475	-2.075928e-05	7.499618e-06	5.430197e-06	-8.625751e-07	
23.011475	-1.080694e-05	8.408014e-06	4.649400e-06	-3.678469e-06	
23.012476	-5.384704e-06	6.439755e-06	4.929102e-06	-9.158132e-06	
23.013476	-3.431943e-06	3.909184e-06	6.594116e-06	-1.387594e-05	
23.014476	-3.405047e-07	3.048511e-06	3.890822e-06	-1.288289e-05	
23.015477	2.339919e-07	-1.243379e-06	1.912744e-06	-6.443323e-06	
23.016477	1.582741e-06	-2.259819e-06	7.636423e-06	-4.590276e-06	
23.017477	4.328488e-06	9.050475e-07	9.472392e-06	-3.844875e-06	
23.018478	7.976061e-07	-7.543079e-07	2.740261e-06	1.653664e-08	
23.019478	-1.944267e-06	-5.599876e-07	5.045944e-07	2.182329e-06	
23.020478	5.375313e-07	8.715097e-07	1.269704e-06	4.988256e-06	
23.021479	-2.044855e-07	-2.145909e-06	-3.739272e-06	4.428774e-06	
23.022479	-2.836673e-06	-6.406723e-07	-9.373386e-06	2.006632e-06	
23.023479	-1.500147e-06	-3.956251e-07	-1.173091e-05	7.721572e-06	
23.024480	4.809521e-06	-7.660745e-06	-1.064586e-05	1.399500e-05	
23.025480	9.498906e-06	-1.008407e-05	-5.389244e-06	1.246904e-05	
23.026480	1.203658e-05	-6.519706e-06	-2.538799e-06	6.042379e-06	
23.027480	1.880214e-05	-1.989721e-06	-4.336170e-06	-3.588927e-06	
23.028481	2.257317e-05	2.172677e-06	-2.757007e-06	-1.303182e-05	
23.029481	2.411820e-05	5.418427e-06	2.909550e-06	-1.381482e-05	
23.030481	2.723041e-05	8.734698e-06	3.439652e-06	-1.119086e-05	
23.031482	2.777496e-05	6.741112e-06	-2.746695e-06	-1.547650e-05	
23.032482	2.964059e-05	2.146493e-06	-3.715999e-06	-1.528441e-05	
23.033482	2.787946e-05	1.325507e-06	7.866426e-08	-7.250428e-06	
23.034483	2.190161e-05	-2.533342e-06	-5.277300e-06	-1.630892e-06	
23.035483	1.987483e-05	-7.869239e-06	-1.005380e-05	5.411753e-06	
23.036483	1.676705e-05	-9.243299e-06	-2.035760e-06	1.619542e-05	
23.037484	9.312376e-06	-8.428999e-06	5.333771e-06	2.290836e-05	
23.038484	1.986589e-06	-2.817566e-06	5.347494e-06	1.772488e-05	
23.039484	-2.572131e-08	-3.047616e-06	3.892456e-06	7.438130e-06	
23.040485	1.378020e-06	-1.554575e-05	3.262414e-06	5.429136e-06	
23.041485	-2.239064e-07	-2.336617e-05	1.928697e-06	5.978588e-06	
23.042485	-2.929304e-06	-2.444088e-05	-6.902853e-07	4.310547e-06	
23.043486	-3.064316e-06	-1.551134e-05	-1.617057e-06	2.016284e-06	
23.044486	-3.324472e-06	2.797749e-06	-1.815892e-06	-5.938692e-06	
23.045486	-7.721514e-06	5.477207e-06	-3.117429e-07	-1.156910e-05	
23.046487	-1.200265e-05	9.944571e-06	4.040047e-06	-6.492874e-06	
23.047487	-1.375036e-05	3.255862e-05	5.929474e-06	-1.143493e-06	
23.048487	-1.805303e-05	3.599253e-05	4.113311e-06	8.620422e-07	
23.049488	-1.866859e-05	1.967187e-05	4.355381e-06	3.418211e-06	
23.050488	-1.212677e-05	8.725693e-06	1.117670e-05	3.980711e-06	
23.051488	-9.283524e-06	3.235308e-06	1.374745e-05	5.214185e-06	
23.052489	-1.114399e-05	2.490479e-06	9.194436e-06	1.597493e-06	
23.053489	-9.825830e-06	1.950762e-07	8.748381e-06	-1.125718e-05	
23.054489	-4.343382e-06	-5.064352e-06	4.588410e-06	-1.268458e-05	
23.055490	-1.713054e-06	-5.748490e-06	-2.359175e-06	-2.765381e-06	
23.056490	-4.471599e-06	-6.326978e-06	-4.174397e-06	-1.774622e-06	
23.057490	-7.054463e-06	-5.514924e-06	-8.859656e-06	-3.073823e-06	
23.058491	-8.080761e-06	-7.158480e-07	-9.400160e-06	6.455511e-07	
23.059491	-6.883627e-06	-1.029008e-06	-4.845081e-06	2.881488e-06	
23.060491	-4.581137e-06	-3.990376e-06	-8.721633e-06	3.328045e-06	
23.061492	-5.205901e-06	-2.904992e-06	-1.729295e-05	-8.693756e-08	
23.062492	-4.571539e-06	-2.697187e-06	-2.434415e-05	-6.141434e-06	
23.063492	-4.278158e-08	-3.699385e-06	-2.658118e-05	-1.031968e-05	
23.064493	2.364589e-06	-5.810897e-07	-1.954931e-05	-1.379753e-05	
23.065493	2.297248e-06	1.558857e-06	-7.587264e-06	-1.044911e-05	
23.066493	5.422619e-06	5.821754e-07	1.991667e-06	-1.484573e-06	
23.067493	7.548183e-06	2.415092e-06	6.634017e-06	7.893018e-07	
23.068494	4.833485e-06	-8.324660e-07	7.149811e-06	-2.602803e-06	
23.069494	3.842164e-06	-7.613790e-06	6.918593e-06	-4.143875e-06	
23.070494	5.153321e-06	-1.048850e-05	9.457568e-06	6.517686e-07	
23.071495	5.812593e-06	-1.502106e-05	1.195572e-05	7.189018e-06	
23.072495	6.363283e-06	-1.462594e-05	1.118253e-05	4.772951e-06	
23.073495	7.430918e-06	-1.150008e-05	1.150966e-05	-2.111720e-06	
23.074496	7.945170e-06	-8.137375e-07	1.264688e-05	-5.678896e-06	
23.075496	4.469449e-06	2.169518e-05	8.724461e-06	-1.685865e-06	
23.076496	-2.669480e-07	2.606289e-05	5.025105e-06	1.425870e-05	
23.077497	-1.325348e-06	2.557491e-05	5.324970e-06	2.811402e-05	
23.078497	-1.862420e-06	3.267245e-05	3.720277e-06	3.134590e-05	
23.079497	-3.801996e-06	1.463787e-05	3.356650e-06	2.827818e-05	
23.080498	-5.120281e-06	-1.015009e-05	4.699763e-06	1.842316e-05	
23.081498	-7.025539e-06	-1.323054e-05	1.492456e-06	8.547444e-06	
23.082498	-7.239550e-06	-8.834204e-06	-2.540678e-06	7.608538e-06	
23.083499	-4.823275e-06	-7.129969e-06	-3.260109e-06	1.239136e-05	
23.084499	-5.357901e-06	-4.772239e-06	-5.248780e-07	2.380089e-06	
23.085499	-5.578312e-06	-2.544332e-06	1.734231e-06	-3.015699e-06	
23.086500	-3.772778e-06	-4.430873e-06	-1.271016e-06	-6.602029e-07	
23.087500	-4.859513e-06	-4.927022e-06	-4.554582e-06	-5.062217e-05	
23.088500	-4.818052e-06	-1.658042e-06	-3.701979e-06	-9.291254e-05	
23.089501	-1.474812e-06	2.144140e-06	-1.449239e-06	-6.528448e-05	
23.090501	3.088721e-06	3.111190e-06	-1.122916e-06	-3.149892e-05	
23.091501	5.906371e-06	-6.515286e-06	-2.898868e-06	-5.788503e-06	
23.092502	4.595900e-06	-1.514354e-05	-4.305109e-06	5.154904e-06	
23.093502	4.904713e-06	-6.325537e-06	-4.388627e-06	7.445675e-06	
23.094502	6.093116e-06	1.639908e-06	-3.601013e-06	2.915939e-05	
23.095503	5.459973e-06	-2.838981e-06	-2.609184e-06	3.603750e-05	
23.096503	7.789636e-06	-3.346000e-07	-2.222757e-06	4.318269e-05	
23.097503	9.660240e-06	4.531347e-06	-1.840686e-06	6.249530e-05	
23.098504	6.531865e-06	-2.976774e-06	-8.650678e-07	6.013975e-05	
23.099504	3.967309e-06	-9.377770e-06	-5.173689e-07	5.516674e-05	
23.100504	6.844002e-06	-4.645745e-06	-4.745684e-07	4.231044e-05	
23.101505	9.405116e-06	4.261531e-06	-1.396488e-06	1.590010e-05	
23.102505	6.607760e-06	5.843463e-06	-3.815110e-06	-9.269445e-06	
23.103505	3.145037e-06	3.261756e-06	-1.595019e-06	-5.136865e-05	
23.104506	9.159467e-07	5.615531e-06	3.570183e-06	-7.706961e-05	
23.105506	-1.635465e-06	2.194079e-06	3.644455e-06	-7.120697e-05	
23.106506	-2.817084e-06	-6.063983e-06	2.385763e-06	-6.588754e-05	
23.107507	-9.378266e-07	-6.453150e-06	2.030869e-06	-3.404982e-05	
23.108507	8.205673e-07	-2.159237e-06	2.949698e-07	2.918958e-05	
23.109507	-6.559628e-07	6.346752e-06	1.609793e-06	5.173498e-05	
23.110507	-2.167739e-06	1.729911e-05	3.960107e-06	-1.097595e-06	
23.111508	-3.286288e-06	2.055031e-05	1.892722e-06	-3.752726e-05	
23.112508	-3.418069e-06	1.414906e-05	-4.459927e-07	-2.896055e-05	
23.113508	8.048606e-07	5.806007e-06	-2.601618e-06	-4.324138e-05	
23.114509	1.231285e-06	2.078866e-06	-3.700738e-06	-2.798060e-05	
23.115509	-5.770372e-06	-1.096035e-06	-4.441615e-08	5.133195e-06	
23.116509	-7.295593e-06	-3.412533e-06	-1.011639e-06	1.090733e-06	
23.117510	-3.931398e-06	-3.947975e-06	-5.212752e-06	2.721636e-05	
23.118510	-4.100901e-06	-8.477261e-06	-2.263796e-06	5.313595e-05	
23.119510	-3.253632e-06	-1.049629e-05	4.055929e-08	4.489649e-05	
23.120511	-2.420016e-06	-1.070811e-05	1.204018e-07	4.073873e-05	
23.121511	-3.159542e-06	-1.124280e-05	1.937805e-06	2.249091e-05	
23.122511	-4.385038e-06	-3.562908e-06	2.256272e-06	1.046649e-06	
23.123512	-7.812314e-06	1.255609e-06	2.762433e-06	-2.248720e-05	
23.124512	-6.177315e-06	-4.717407e-06	6.424406e-07	-6.518202e-05	
23.125512	-3.522209e-06	-6.700904e-06	-3.326984e-06	-7.817916e-05	
23.126513	-5.824463e-06	2.235315e-07	-2.239687e-06	-3.544094e-05	
23.127513	-5.727886e-06	3.486989e-06	4.422456e-07	2.204843e-05	
23.128513	-6.906597e-06	8.331224e-07	1.292640e-06	5.768066e-05	
23.129514	-7.495311e-06	1.320088e-06	-1.302041e-06	7.361070e-05	
23.130514	-1.875561e-06	3.103164e-06	-4.454955e-06	9.172600e-05	
23.131514	6.086393e-07	2.774879e-06	-1.835115e-06	1.134051e-04	
23.132515	-7.811552e-07	3.642842e-06	8.045866e-07	1.069737e-04	
23.133515	-2.372369e-07	7.169644e-06	9.857115e-07	6.436381e-05	
23.134515	7.138765e-07	9.185024e-06	9.851533e-07	-1.460224e-05	
23.135516	2.416886e-06	6.599333e-06	1.191180e-06	-1.138321e-04	
23.136516	6.334881e-06	5.457969e-06	6.414110e-06	-1.230181e-04	
23.137516	8.308468e-06	2.705361e-06	9.762463e-06	-4.189131e-05	
23.138517	7.208963e-06	-4.334490e-06	5.764020e-06	-3.507535e-05	
23.139517	6.586127e-06	1.385463e-06	2.501089e-06	-8.505449e-05	
23.140517	8.218731e-06	7.383855e-06	1.881641e-06	-5.186072e-05	
23.141518	1.281966e-05	-8.834928e-06	2.801151e-06	1.671881e-05	
23.142518	1.118105e-05	-1.493779e-05	2.499670e-06	3.049646e-05	
23.143518	3.486904e-06	-7.871747e-07	9.800231e-07	1.695185e-05	
23.144519	4.349090e-06	1.166627e-07	1.081137e-06	-1.560009e-05	
23.145519	6.105269e-06	-3.980003e-06	-1.020965e-06	-4.555786e-05	
23.146519	3.339789e-06	-7.074583e-07	-1.916370e-06	-4.332080e-05	
23.147520	5.153317e-06	-3.254601e-06	-2.754007e-06	-6.189592e-05	
23.148520	6.427516e-06	-6.237679e-06	-7.677268e-06	-5.775596e-05	
23.149520	4.175113e-06	-3.299516e-06	-6.640239e-06	6.044117e-06	
23.150520	2.884447e-06	2.406987e-07	-4.606859e-06	3.656367e-05	
23.151521	2.910575e-06	1.023211e-06	-6.945851e-06	3.726651e-05	
23.152521	1.395845e-06	-7.186001e-07	-4.096416e-06	5.505490e-05	
23.153521	-2.771559e-06	-5.326973e-07	-9.948729e-07	6.492270e-05	
23.154522	-6.269735e-06	1.149326e-06	-5.607373e-07	4.305867e-05	
23.155522	-9.361855e-06	3.150660e-06	9.495847e-07	3.523155e-05	
23.156522	-1.109684e-05	5.515309e-06	1.480177e-07	4.649945e-05	
23.157523	-1.067719e-05	4.389112e-06	-4.371171e-07	1.603230e-05	
23.158523	-1.079300e-05	1.776463e-06	2.819162e-06	1.142403e-05	
23.159523	-8.821973e-06	7.444347e-07	5.891334e-06	4.583480e-05	
23.160524	-8.561295e-06	-1.070666e-06	3.183387e-06	4.040291e-05	
23.161524	-1.184005e-05	-2.039229e-06	-2.774662e-06	1.835627e-05	
23.162524	-1.056005e-05	1.249213e-06	-3.714853e-06	1.414658e-06	
23.163525	-8.591922e-06	3.206561e-06	-1.191457e-06	1.174791e-05	
23.164525	-9.124402e-06	-2.143046e-07	4.411574e-07	-3.843734e-06	
23.165525	-9.229724e-06	-3.504253e-06	3.793614e-06	-7.654777e-05	
23.166526	-6.350954e-06	-6.044784e-06	5.946373e-06	-7.465880e-05	
23.167526	1.957630e-06	-8.868842e-06	3.506413e-06	-1.222611e-05	
23.168526	5.187167e-06	-9.015213e-06	2.973117e-06	1.019636e-05	
23.169527	3.107197e-06	-6.898940e-06	3.360318e-06	-5.082192e-05	
23.170527	3.933586e-06	-5.102653e-06	-1.696497e-06	-1.459829e-04	
23.171527	3.221374e-06	-3.758478e-06	-5.299413e-06	-9.834084e-05	
23.172528	3.342276e-06	1.167025e-06	-2.894998e-06	2.119391e-05	
23.173528	5.902715e-06	1.058407e-05	-8.717061e-07	3.524511e-05	
23.174528	5.794844e-06	1.655459e-05	-1.616413e-06	-6.762742e-06	
23.175529	4.833378e-06	1.170036e-05	-2.488004e-06	-2.691732e-05	
23.176529	7.697494e-06	4.746099e-06	-6.051990e-07	1.143931e-05	
23.177529	1.260445e-05	6.133300e-06	2.302790e-07	6.464087e-05	
23.178530	1.351903e-05	6.439505e-06	-2.343919e-06	7.473239e-05	
23.179530	1.228368e-05	2.222769e-06	9.089850e-08	5.096925e-05	
23.180530	1.205880e-05	3.236472e-06	2.662706e-06	2.434139e-06	
23.181531	1.053468e-05	5.103223e-06	-1.588702e-06	-1.824697e-05	
23.182531	8.079541e-06	3.928515e-07	-2.304609e-06	-4.321932e-06	
23.183531	6.689254e-06	-6.415807e-06	3.196507e-08	2.042267e-05	
23.184532	5.229123e-06	-8.640360e-06	1.737483e-06	6.211475e-05	
23.185532	3.511187e-06	-2.427019e-06	4.626451e-06	9.287644e-05	
23.186532	3.019577e-06	3.571801e-06	3.811364e-06	8.884966e-05	
23.187533	1.713120e-06	1.660528e-07	2.875235e-06	4.346140e-05	
23.188533	-1.437012e-06	-3.067352e-06	2.173784e-06	8.122074e-08	
23.189533	-2.935742e-06	-2.929069e-06	-2.724350e-06	-6.570308e-05	
23.190534	-1.851217e-06	-6.402613e-06	-4.116826e-06	-1.561665e-04	
23.191534	-1.818605e-06	-7.532201e-06	-2.517431e-06	-1.083629e-04	
23.192534	-3.911634e-06	-3.057900e-07	-1.509607e-06	3.006958e-06	
23.193534	-7.131052e-06	5.267368e-06	2.408181e-06	2.423544e-05	
23.194535	-8.879099e-06	2.188972e-06	2.806957e-06	3.823817e-05	
23.195535	-6.437949e-06	-9.979562e-07	-1.144034e-06	4.722817e-05	
23.196535	-5.692333e-06	-1.753048e-06	1.512201e-08	4.652227e-05	
23.197536	-6.974395e-06	-2.001196e-06	3.385146e-06	7.815017e-05	
23.198536	-4.354397e-06	5.956363e-07	3.222355e-06	4.021329e-05	
23.199536	-2.509355e-06	1.413480e-06	-1.153381e-06	-9.280206e-05	
23.200537	-2.470529e-06	-4.700613e-07	-6.107629e-06	-1.545776e-04	
23.201537	-2.069644e-06	-1.368181e-07	-4.454071e-06	-9.188529e-05	
23.202537	-5.574344e-06	3.219147e-06	-9.616317e-07	-7.431630e-05	
23.203538	-8.299720e-06	6.471136e-06	-4.170432e-07	-1.106973e-04	
23.204538	-6.176237e-06	5.339870e-06	1.757161e-06	-5.208761e-05	
23.205538	-5.492078e-06	2.270011e-06	5.243766e-06	2.531173e-05	
23.206539	-4.445517e-06	-2.063534e-06	4.342066e-06	3.457461e-05	
23.207539	-2.515058e-06	-8.947766e-06	1.979172e-07	5.364770e-05	
23.208539	-3.681440e-06	-1.089599e-05	1.819970e-06	1.012371e-04	
23.209540	-4.688661e-06	-6.699952e-06	3.939670e-06	1.433484e-04	
23.210540	-6.471655e-06	-3.163622e-06	3.926340e-07	1.220294e-04	
23.211540	-6.712709e-06	-3.144510e-06	-1.070896e-06	3.310460e-05	
23.212541	-2.191097e-06	-2.318864e-06	-2.165875e-06	1.001998e-05	
23.213541	-5.583940e-07	6.427392e-06	-5.035599e-06	2.386533e-05	
23.214541	-2.057559e-06	1.141940e-05	-4.603136e-06	-3.960310e-05	
23.215542	-1.409032e-06	5.389857e-07	-1.385090e-06	-7.447749e-05	
23.216542	7.511847e-07	-8.911676e-06	-2.548781e-07	-6.298616e-05	
23.217542	1.779349e-06	-6.364732e-06	-2.251699e-06	-5.725545e-05	
23.218543	3.718119e-08	-5.050868e-06	-1.986165e-06	4.749167e-06	
23.219543	-2.358102e-07	-8.843617e-06	-5.826001e-07	2.078670e-05	
23.220543	3.130377e-06	-8.290202e-06	-1.311161e-06	-2.610678e-05	
23.221544	3.991046e-06	-4.438460e-06	-1.975890e-06	-7.532364e-06	
23.222544	4.635167e-06	2.661668e-07	-3.694895e-06	-4.591247e-06	
23.223544	8.100778e-06	1.199411e-05	-3.387513e-06	-7.713775e-06	
23.224545	6.348976e-06	1.843166e-05	5.947877e-07	4.094579e-05	
23.225545	4.546643e-06	1.101775e-05	1.343917e-06	6.384244e-05	
23.226545	7.310003e-06	5.139023e-06	2.970265e-07	4.609934e-05	
23.227546	5.949067e-06	3.445811e-06	1.111992e-07	-2.610380e-05	
23.228546	4.985802e-06	2.247099e-06	-1.013879e-07	-5.290513e-05	
23.229546	5.213617e-06	2.747477e-06	3.504026e-06	8.256873e-06	
23.230547	3.425648e-06	2.709451e-06	6.336872e-06	-6.826945e-06	
23.231547	5.639689e-06	3.108197e-06	3.814202e-06	-2.870397e-05	
23.232547	5.951317e-06	3.814486e-06	3.202065e-06	2.200225e-05	
23.233547	4.441072e-06	3.222331e-06	3.406163e-06	1.377660e-05	
23.234548	7.532882e-06	5.302823e-07	1.511608e-07	5.788264e-06	
23.235548	7.533588e-06	-2.351208e-06	-1.449553e-08	3.593553e-05	
23.236548	5.475984e-06	6.682620e-07	1.834367e-06	-3.203753e-06	
23.237549	6.916308e-06	4.732041e-06	2.997658e-07	-7.395969e-06	
23.238549	5.980269e-06	-5.283717e-07	4.428190e-08	4.455514e-05	
23.239549	1.580466e-06	-9.280292e-06	6.113433e-08	2.859766e-05	
23.240550	9.849272e-07	-8.760461e-06	-2.641081e-06	-1.872623e-05	
23.241550	2.137211e-06	-1.000051e-06	-1.862715e-06	-6.911629e-05	
23.242550	-2.516032e-06	-1.022227e-06	1.596549e-06	-7.538988e-05	
23.243551	-6.263407e-06	-5.875570e-06	5.921312e-07	-1.722599e-05	
23.244551	-4.343012e-06	5.153959e-07	-6.195596e-07	4.699243e-06	
23.245551	-3.292539e-06	8.931502e-06	3.603385e-06	5.520138e-06	
23.246552	-4.384696e-06	5.490873e-06	3.789807e-06	3.292131e-05	
23.247552	-7.819180e-06	-5.418659e-06	-2.003040e-09	5.755320e-05	
23.248552	-9.959184e-06	-1.363084e-05	1.991892e-06	7.637808e-05	
23.249553	-7.895396e-06	-1.359068e-05	1.397577e-06	1.975153e-05	
23.250553	-8.704744e-06	-9.648625e-06	-4.057739e-06	-1.163996e-04	
23.251553	-8.433331e-06	-5.763354e-06	-6.457047e-06	-9.814562e-05	
23.252554	-3.215777e-06	-5.665697e-06	-5.283679e-06	1.393907e-05	
23.253554	-2.351972e-06	-1.547142e-06	-1.949674e-06	-2.666571e-05	
23.254554	-3.335452e-06	1.655225e-05	-1.198862e-06	-5.522728e-05	
23.255555	-2.511205e-06	2.567778e-05	-3.810057e-07	-1.556856e-05	
23.256555	-5.077790e-06	1.331252e-05	7.098749e-07	-2.143410e-05	
23.257555	-4.801314e-06	2.787851e-06	-2.658731e-06	4.702475e-06	
23.258556	9.884424e-07	3.928746e-06	-1.878194e-06	2.448992e-05	
23.259556	1.564245e-06	4.661170e-06	2.236870e-06	1.009096e-05	
23.260556	-7.441357e-07	-5.655478e-07	1.225939e-06	1.289197e-05	
23.261557	2.681663e-06	-7.731303e-06	-7.949246e-07	8.876590e-07	
23.262557	4.940601e-06	-1.165589e-05	-5.310935e-07	-2.008689e-06	
23.263557	7.956506e-07	-1.026831e-05	-1.376820e-06	1.132466e-05	
23.264558	-1.059334e-06	-9.472206e-06	-3.025636e-06	1.659274e-05	
23.265558	6.906314e-07	-7.181167e-06	-8.823161e-07	3.135720e-05	
23.266558	-2.606924e-07	-5.991941e-07	4.628274e-07	6.926583e-05	
23.267559	2.549914e-07	-5.404369e-06	-2.207047e-06	1.166449e-04	
23.268559	2.093644e-06	-2.006026e-05	-2.565691e-07	1.049413e-04	
23.269559	4.878180e-07	-2.061720e-05	4.257058e-06	6.510720e-05	
23.270560	1.400999e-06	-5.100223e-06	3.358374e-06	5.715958e-05	
23.271560	2.291352e-06	1.027176e-05	1.232618e-06	-6.870489e-06	
23.272560	-2.970323e-06	1.809765e-05	3.072859e-06	-1.124070e-04	
23.273561	-4.874066e-06	1.706950e-05	5.807469e-06	-1.539229e-04	
23.274561	-3.081793e-06	1.955476e-05	3.242361e-06	-1.078393e-04	
23.275561	-6.614855e-06	2.934912e-05	-1.735448e-06	-8.824693e-06	
23.276561	-8.665738e-06	2.245924e-05	-1.276966e-06	9.902849e-06	
23.277562	-6.389501e-06	6.422643e-06	4.957553e-07	-6.791148e-05	
23.278562	-5.376122e-06	9.214687e-07	-1.537529e-06	-8.221094e-05	
23.279562	-1.949926e-06	-2.221025e-07	-1.907761e-06	-2.144979e-05	
23.280563	1.460115e-06	4.029593e-06	-5.689108e-08	4.793035e-05	
23.281563	1.680553e-06	2.519323e-06	-8.103254e-07	1.195629e-04	
23.282563	5.475987e-06	-7.969360e-06	-1.286408e-06	1.631433e-04	
23.283564	1.013901e-05	-1.021930e-05	5.731775e-07	1.789761e-04	
23.284564	1.003899e-05	-1.228782e-05	1.587030e-06	1.708866e-04	
23.285564	9.558922e-06	-1.380953e-05	2.555445e-06	1.123308e-04	
23.286565	1.140655e-05	-9.127093e-06	2.122157e-06	-8.570085e-05	
23.287565	1.425791e-05	-1.069708e-05	-1.494267e-06	-3.117157e-04	
23.288565	1.511502e-05	-1.102046e-05	-1.748611e-06	-2.009347e-04	
23.289566	1.135095e-05	-6.298623e-06	4.168634e-07	-2.188935e-05	
23.290566	8.649362e-06	-6.482159e-06	-6.067996e-07	-1.507780e-04	
23.291566	9.363300e-06	-6.871638e-06	-1.100661e-06	-1.775373e-04	
23.292567	8.329919e-06	-2.813531e-06	-2.285714e-07	-7.919735e-06	
23.293567	5.518997e-06	3.893969e-06	9.707315e-07	5.488540e-05	
23.294567	-2.597874e-07	5.704131e-06	1.517997e-06	4.383124e-05	
23.295568	-5.881323e-06	2.620284e-06	-1.077425e-07	1.980191e-05	
23.296568	-6.722227e-06	4.355426e-06	-3.653496e-07	1.075229e-05	
23.297568	-1.046812e-05	6.229837e-06	-3.226077e-08	1.876820e-05	
23.298569	-1.416236e-05	4.519905e-06	-1.474842e-07	1.009170e-05	
23.299569	-1.143969e-05	3.577389e-06	-1.062557e-06	2.481489e-05	
23.300569	-1.010566e-05	3.129764e-06	-3.096202e-06	4.207742e-05	
23.301570	-1.027405e-05	2.909338e-06	-1.735057e-06	3.744562e-05	
23.302570	-9.296609e-06	1.957487e-06	-2.401760e-06	3.872194e-05	
23.303570	-8.909270e-06	4.287290e-07	-6.121263e-06	4.386784e-05	
23.304571	-9.170794e-06	-4.815833e-07	-3.012153e-06	3.864301e-05	
23.305571	-1.142437e-05	-1.049065e-06	1.169576e-06	3.020079e-05	
23.306571	-1.205653e-05	-7.451164e-07	-7.878884e-07	2.780970e-05	
23.307572	-9.648395e-06	-3.115271e-07	-1.790951e-06	1.885570e-05	
23.308572	-5.939600e-06	-1.960659e-07	1.170165e-06	1.975695e-05	
23.309572	3.379012e-07	-1.636433e-06	2.938849e-06	1.662334e-05	
23.310573	3.911957e-06	-5.682792e-06	2.797267e-06	2.657728e-05	
23.311573	6.190700e-06	-3.691197e-06	3.452070e-06	1.021639e-04	
23.312573	1.428757e-05	4.004795e-06	4.754190e-06	7.045482e-05	
23.313574	1.711642e-05	4.996821e-06	2.554350e-06	-6.856466e-05	
23.314574	1.057702e-05	4.821130e-06	-3.299766e-06	-5.182309e-05	
23.315574	1.091384e-05	4.934288e-06	-2.749820e-06	9.699118e-06	
23.316574	1.434658e-05	1.345033e-06	1.693342e-06	-4.643138e-05	
23.317575	1.037894e-05	4.990778e-06	8.574191e-07	-1.009320e-04	
23.318575	8.707091e-06	8.105495e-06	1.432679e-06	-8.933279e-05	
23.319575	7.122843e-06	2.933972e-06	3.167160e-06	-3.971949e-05	
23.320576	2.604566e-06	6.016432e-08	4.463016e-07	-1.240260e-05	
23.321576	1.968230e-06	-1.603762e-06	-1.332645e-06	-1.181330e-05	
23.322576	-2.711236e-06	-2.244885e-06	-9.543329e-07	-1.175170e-07	
23.323577	-8.717321e-06	-5.915276e-07	-4.018258e-07	5.185856e-07	
23.324577	-7.335459e-06	-1.494705e-06	2.958674e-06	-5.258156e-06	
23.325577	-5.677465e-06	-3.018863e-06	4.963271e-06	-1.394661e-06	
23.326578	-7.131436e-06	-2.985102e-06	8.445263e-07	4.846526e-07	
23.327578	-1.098402e-05	-2.149142e-06	-1.980167e-06	5.799428e-07	
23.328578	-1.332908e-05	-1.657468e-06	-1.321231e-06	6.033710e-07	
23.329579	-1.030107e-05	-2.775657e-06	-2.328206e-06	-6.841599e-07	
23.330579	-6.661727e-06	-4.520370e-06	-1.786168e-06	-4.718008e-07	
23.331579	-5.580743e-06	-7.992906e-06	2.135550e-07	3.735503e-06	
23.332580	-4.320346e-06	-1.275523e-05	-1.567711e-06	4.719470e-06	
23.333580	-1.804113e-06	-1.275812e-05	-2.197659e-06	8.492807e-06	
23.334580	-7.244356e-07	-1.060797e-05	1.667574e-06	2.511501e-05	
23.335581	-2.523382e-07	-1.042233e-05	2.592996e-06	3.092186e-05	
23.336581	1.068956e-06	-5.592391e-06	8.985996e-08	2.120559e-05	
23.337581	4.308845e-06	5.075050e-06	1.998150e-07	2.892235e-05	
23.338582	9.215655e-06	1.876951e-05	-6.001775e-07	2.272769e-05	
23.339582	9.167623e-06	2.306134e-05	-4.390619e-06	-3.496209e-05	
23.340582	5.587468e-06	1.157111e-05	-4.419950e-06	-6.885983e-05	
23.341583	4.002334e-06	6.883265e-06	-1.843744e-06	-3.540209e-05	
23.342583	4.406872e-06	7.301485e-06	-3.862629e-07	2.903818e-05	
23.343583	6.665266e-06	1.388741e-06	1.514575e-06	8.017576e-05	
23.344584	7.525285e-06	2.647196e-06	2.342819e-06	9.337942e-05	
23.345584	6.521983e-06	4.706683e-06	2.097830e-06	9.911884e-05	
23.346584	6.630001e-06	3.704865e-06	2.575185e-06	8.222145e-05	
23.347585	7.199195e-06	7.706385e-06	2.338843e-06	2.707980e-05	
23.348585	3.585325e-06	6.405291e-06	6.069150e-07	-5.212017e-05	
23.349585	-1.768260e-06	-1.298458e-06	-4.120132e-07	-1.308845e-04	
23.350586	-2.764687e-06	-6.419464e-06	-1.069989e-06	-1.109857e-04	
23.351586	-5.538649e-06	-7.511255e-06	-3.829557e-06	-1.788843e-05	
23.352586	-5.457037e-06	-5.770016e-06	-4.540880e-06	9.024950e-06	
23.353587	4.096767e-07	-5.128319e-06	-1.345327e-06	-4.676780e-05	
23.354587	-2.751102e-06	-6.070150e-06	-3.935257e-07	-6.438188e-05	
23.355587	-7.481889e-06	-6.150938e-06	-1.226381e-06	-2.468134e-05	
23.356588	-4.588703e-06	-6.730948e-06	1.108027e-06	-2.243670e-05	
23.357588	-2.727834e-06	-6.229777e-06	2.563595e-06	1.969885e-05	
23.358588	-2.182502e-06	-8.826303e-07	5.774352e-07	5.386714e-05	
23.359588	-2.349975e-06	2.525571e-06	5.239126e-07	-4.971292e-05	
23.360589	-2.958030e-06	5.160532e-07	1.056035e-06	-8.882686e-05	
23.361589	-1.915469e-06	6.356050e-07	-6.995568e-07	3.717894e-06	
23.362589	-4.472868e-07	-4.115570e-07	-1.318127e-06	4.563373e-05	
23.363590	2.153139e-06	-2.444951e-06	-4.981608e-07	2.741801e-06	
23.364590	1.863076e-06	-1.118708e-06	-5.360979e-07	-3.021519e-05	
23.365590	-2.369791e-06	-5.564520e-06	2.062893e-07	1.513344e-05	
23.366591	-3.354444e-06	-1.238928e-05	2.808048e-06	6.393876e-05	
23.367591	-2.823459e-06	-1.416721e-05	1.277169e-06	5.532183e-05	
23.368591	-3.993859e-06	-1.115492e-05	-2.514179e-06	5.240475e-05	
23.369592	-2.931147e-06	1.795118e-06	1.091980e-06	5.914675e-05	
23.370592	-5.892781e-07	1.491543e-05	6.321870e-06	5.910812e-05	
23.371592	-1.940687e-06	1.813653e-05	5.033933e-06	4.779968e-05	
23.372593	-2.710656e-06	1.908401e-05	2.246433e-06	-2.602269e-07	
23.373593	5.332689e-07	1.795021e-05	2.287379e-06	-5.208150e-06	
23.374593	9.858844e-07	1.254530e-05	2.248211e-06	3.920077e-05	
23.375594	8.241655e-07	6.451192e-06	4.973548e-07	1.024068e-05	
23.376594	1.792376e-06	9.962574e-07	7.995833e-07	-5.409678e-05	
23.377594	8.217253e-07	-4.278206e-06	1.053719e-06	-8.171248e-05	
23.378595	1.790810e-06	-8.957922e-06	-1.463156e-06	-7.093806e-05	
23.379595	1.956245e-06	-8.362757e-06	-1.484850e-06	-2.800340e-05	
23.380595	2.616208e-06	-2.771041e-06	-5.291109e-07	-2.361957e-05	
23.381596	6.358438e-06	3.426003e-06	-2.382201e-06	-3.827062e-05	
23.382596	6.497984e-06	6.529358e-06	-4.901301e-06	-1.110973e-05	
23.383596	5.804813e-06	-5.070043e-07	-4.862061e-06	8.143501e-06	
23.384597	4.115235e-06	-1.098317e-05	-1.507477e-06	7.808966e-06	
23.385597	-5.040611e-06	-1.219939e-05	-2.269618e-06	1.047144e-05	
23.386597	-1.099597e-05	-1.044211e-05	-5.601636e-06	8.386229e-06	
23.387598	-4.780806e-06	-1.050324e-05	-2.717828e-06	8.284994e-06	
23.388598	1.035681e-06	-1.060286e-05	-2.434450e-07	1.004299e-05	
23.389598	1.715405e-06	-1.040166e-05	-1.135990e-06	1.122075e-05	
23.390599	4.471461e-06	3.333450e-06	1.015169e-07	1.441224e-05	
23.391599	6.234718e-06	2.184514e-05	1.638078e-06	1.217883e-05	
23.392599	2.871435e-06	1.750854e-05	1.582105e-06	7.457482e-06	
23.393600	-2.615701e-06	4.220109e-06	-1.022487e-06	4.856567e-06	
23.394600	-5.018435e-06	1.643974e-06	-2.374548e-06	3.189335e-06	
