X [s]	1 Gast Med [V]	2 T Ant [V]	3 R Fem [V]	4 B Fem [V]	
1.620000	-1.036218e-05	4.919077e-05	5.896045e-07	1.982032e-06	
1.621001	-7.460164e-06	2.684641e-05	5.871274e-07	2.968379e-06	
1.622002	1.094458e-06	-1.418059e-05	1.148313e-06	3.767620e-06	
1.623003	6.046109e-06	-4.034706e-05	9.579058e-07	6.479626e-06	
1.624004	8.461495e-06	-8.823473e-05	1.249402e-06	4.545051e-06	
1.625005	1.529385e-05	-8.776114e-05	3.028245e-06	4.324034e-06	
1.626006	1.262069e-05	-3.114812e-05	9.918436e-07	8.083539e-06	
1.627007	4.032645e-06	-3.445362e-05	-1.133662e-06	4.548421e-06	
1.628008	2.536465e-06	-4.105413e-05	-1.073902e-06	-3.220049e-07	
1.629008	3.612257e-06	-5.673358e-06	-1.021929e-08	-2.029543e-06	
1.630009	1.160596e-06	3.767207e-05	2.235452e-06	-8.950250e-06	
1.631010	-4.737728e-07	8.637448e-05	-1.817713e-06	-1.197525e-05	
1.632011	3.494847e-06	6.851112e-05	-2.101376e-06	-7.791154e-06	
1.633012	8.949169e-06	2.549811e-05	7.999519e-06	-2.586676e-06	
1.634013	1.448859e-05	2.305307e-05	1.199655e-05	3.124420e-06	
1.635014	1.608899e-05	1.662669e-05	9.164990e-06	-5.177805e-06	
1.636015	1.347017e-05	-1.307481e-05	4.578046e-06	-2.161290e-05	
1.637016	1.179905e-05	-5.786761e-05	1.896049e-06	-1.762126e-05	
1.638017	6.434770e-06	-3.072060e-05	1.403912e-06	-1.513128e-06	
1.639018	7.377391e-07	2.912403e-05	-1.265216e-06	5.757513e-06	
1.640019	-3.065370e-06	-3.015096e-06	-4.400921e-07	8.367270e-06	
1.641020	-8.538591e-06	-2.252460e-05	-1.592731e-06	1.164168e-05	
1.642021	-9.410698e-06	3.643261e-05	-7.062920e-06	1.201328e-05	
1.643022	-6.799768e-06	7.156958e-05	-7.691696e-06	8.295947e-06	
1.644023	-6.414323e-06	5.594523e-05	-5.203251e-06	6.149568e-06	
1.645024	-5.445261e-06	4.764461e-05	-2.121387e-06	8.362824e-06	
1.646025	1.419362e-06	1.702298e-05	-2.297641e-06	9.683964e-06	
1.647025	5.697262e-06	-7.420743e-05	-4.264606e-06	5.937414e-06	
1.648026	-9.297946e-07	-1.164809e-04	-2.543383e-07	-2.204812e-06	
1.649027	-4.576676e-06	-1.108371e-04	4.292145e-06	-3.220701e-06	
1.650028	-4.039671e-06	-1.315771e-04	3.630242e-06	4.347765e-07	
1.651029	-6.863599e-06	-1.082542e-04	2.873528e-06	-5.854359e-06	
1.652030	-4.442584e-06	-2.366630e-05	3.489602e-06	-6.998518e-06	
1.653031	4.801275e-06	9.144994e-05	2.911154e-06	-7.392489e-06	
1.654032	8.575527e-06	1.532402e-04	3.344379e-07	-2.052951e-05	
1.655033	1.324654e-06	8.849984e-05	-2.151236e-06	-1.690884e-05	
1.656034	-1.554896e-06	3.113225e-05	1.379792e-06	6.493813e-08	
1.657035	1.519744e-06	3.745478e-05	4.426081e-06	3.315401e-06	
1.658036	-4.597503e-07	5.191873e-05	1.048789e-06	-1.437813e-06	
1.659037	2.178054e-06	6.987841e-05	-8.255393e-07	-5.057982e-06	
1.660038	5.045625e-06	4.655990e-05	-2.161335e-06	-3.410600e-06	
1.661039	4.138535e-06	-1.221070e-05	-2.128101e-06	2.010368e-06	
1.662040	1.040841e-05	-3.390679e-05	-2.727629e-06	5.983960e-06	
1.663041	1.558157e-05	4.839675e-07	-9.023658e-06	9.250663e-06	
1.664042	2.185174e-05	9.905723e-06	-1.035618e-05	1.081168e-05	
1.665042	2.463577e-05	-3.210414e-05	-1.029773e-05	4.172862e-06	
1.666043	5.805784e-06	-2.941005e-05	-1.426790e-05	1.202999e-07	
1.667044	-9.313196e-06	-9.845201e-06	-1.230207e-05	9.921802e-06	
1.668045	-1.016639e-05	-2.969253e-05	-4.486005e-06	1.945548e-05	
1.669046	-2.016903e-05	-4.156980e-05	6.205852e-06	2.818374e-05	
1.670047	-3.236075e-05	-6.748029e-05	1.465149e-05	2.918605e-05	
1.671048	-3.975625e-05	-1.123780e-04	1.381665e-05	1.162595e-05	
1.672049	-4.605230e-05	-8.067687e-05	7.426931e-06	2.359484e-07	
1.673050	-4.720336e-05	-5.835254e-06	6.839232e-06	-2.805883e-06	
1.674051	-4.912131e-05	-1.554786e-05	1.149294e-05	-1.827754e-05	
1.675052	-4.746939e-05	-5.141012e-05	1.015042e-05	-3.463540e-05	
1.676053	-3.058819e-05	5.416397e-07	7.708536e-06	-2.897870e-05	
1.677054	-1.283917e-05	8.051805e-05	7.405924e-06	-1.617393e-05	
1.678055	-7.924857e-06	7.737589e-05	6.584809e-06	-1.727248e-05	
1.679056	-6.165438e-06	4.643526e-05	6.178151e-06	-1.882820e-05	
1.680057	-2.925761e-06	8.394360e-05	2.072366e-06	-2.205013e-05	
1.681058	-1.153478e-06	9.427543e-05	-2.729277e-06	-2.760667e-05	
1.682059	2.532582e-06	3.101066e-05	-7.545169e-06	-1.283430e-05	
1.683059	1.107609e-05	3.674192e-06	-9.250042e-06	1.176073e-05	
1.684060	2.360496e-05	2.893696e-05	-4.143287e-06	2.227714e-05	
1.685061	3.403939e-05	2.589842e-05	-3.327232e-06	2.405455e-05	
1.686062	4.441210e-05	-2.594530e-05	-6.206169e-06	2.565511e-05	
1.687063	5.837322e-05	-4.886066e-05	-5.061577e-06	2.606904e-05	
1.688064	6.756052e-05	-1.684539e-05	-3.090338e-06	2.293384e-05	
1.689065	7.216413e-05	3.731541e-06	-3.972925e-06	1.081749e-05	
1.690066	7.089866e-05	-8.781750e-06	-5.377518e-06	-1.193707e-06	
1.691067	6.230310e-05	-1.499945e-05	-2.554490e-06	-1.400573e-06	
1.692068	5.188204e-05	-3.093873e-06	2.016956e-06	-5.247142e-07	
1.693069	3.717724e-05	-2.234597e-06	3.046450e-06	-1.881867e-06	
1.694070	3.182213e-05	-8.752362e-06	1.482092e-06	-2.292968e-06	
1.695071	4.091807e-05	-1.442653e-05	1.498170e-08	-8.382221e-06	
1.696072	3.905075e-05	-2.640235e-05	5.530848e-07	-1.269482e-05	
1.697073	2.276148e-05	-1.969920e-05	-2.619698e-07	-9.550371e-06	
1.698074	1.053088e-05	-4.138233e-06	-5.663438e-06	-9.029512e-06	
1.699075	4.456715e-06	-3.055629e-06	-6.858036e-06	-6.938027e-06	
1.700076	-1.547927e-05	6.627220e-06	-2.908545e-06	-1.086973e-07	
1.701076	-5.064597e-05	7.232435e-06	-4.235107e-06	1.842290e-06	
1.702077	-7.915920e-05	-1.975780e-05	-7.937200e-06	4.279560e-06	
1.703078	-9.661402e-05	-2.915262e-05	-9.564431e-06	7.677308e-06	
1.704079	-1.035095e-04	-1.424899e-05	-9.310854e-06	5.642978e-06	
1.705080	-1.000244e-04	3.445527e-07	-9.882597e-07	5.983816e-06	
1.706081	-9.055160e-05	2.171182e-05	9.013897e-06	6.233074e-06	
1.707082	-8.198928e-05	4.137125e-05	1.299065e-05	5.106620e-06	
1.708083	-7.225923e-05	3.416946e-05	1.522356e-05	4.749564e-06	
1.709084	-4.288303e-05	2.114958e-05	9.948192e-06	-2.375951e-06	
1.710085	-7.137522e-06	1.544602e-05	2.699123e-06	-7.412534e-06	
1.711086	1.334895e-05	-1.058353e-05	4.176109e-06	-5.777284e-06	
1.712087	2.640790e-05	-1.034427e-05	4.316341e-06	-2.644336e-06	
1.713088	3.629876e-05	2.895044e-05	2.470901e-06	2.934544e-06	
1.714089	4.025865e-05	1.462659e-05	2.355196e-06	2.670915e-06	
1.715090	3.321708e-05	-4.120111e-05	9.237866e-07	-8.654117e-07	
1.716091	2.316031e-05	-6.164182e-05	2.079715e-06	-7.026793e-07	
1.717092	1.936406e-05	-5.150870e-05	3.545515e-06	-2.513414e-06	
1.718093	1.154128e-05	-4.512004e-05	2.305945e-06	-9.807619e-07	
1.719093	3.665307e-06	-3.799808e-05	3.715469e-06	-4.479973e-09	
1.720094	1.058562e-05	-1.071402e-05	3.855532e-06	-6.121829e-06	
1.721095	3.299750e-05	1.301159e-05	-1.059680e-06	-7.965443e-06	
1.722096	4.588950e-05	1.587485e-05	-3.456033e-06	-1.130914e-05	
1.723097	3.268894e-05	2.576000e-05	-3.130902e-06	-1.157418e-05	
1.724098	1.774681e-05	4.192355e-05	-5.640220e-06	4.049419e-07	
1.725099	1.315261e-05	4.124344e-05	-8.526971e-06	2.901892e-06	
1.726100	1.700947e-05	2.985734e-05	-5.304671e-06	-1.896002e-06	
1.727101	1.635829e-05	1.954971e-05	-6.894011e-07	1.088757e-06	
1.728102	-9.121584e-06	1.254206e-05	-3.274826e-06	6.661587e-06	
1.729103	-2.816319e-05	8.575298e-06	-4.291782e-06	9.092809e-06	
1.730104	-2.563727e-05	6.324218e-06	-9.101108e-07	8.586640e-06	
1.731105	-3.003705e-05	3.490916e-06	-1.227319e-06	1.075940e-05	
1.732106	-3.341498e-05	1.365037e-05	-7.447560e-07	9.231836e-06	
1.733107	-1.496658e-05	4.069739e-05	4.159612e-07	1.735295e-06	
1.734108	2.063533e-05	4.189119e-05	5.813768e-08	7.958416e-07	
1.735109	3.745372e-05	4.044830e-06	2.593768e-06	1.991303e-06	
1.736110	2.077306e-05	-2.504705e-05	1.270950e-06	-4.516456e-06	
1.737110	7.965516e-06	-3.235842e-05	-4.646183e-06	-9.363490e-06	
1.738111	7.292494e-06	-5.086539e-05	-5.300816e-06	-2.098193e-06	
1.739112	6.867309e-06	-6.425485e-05	-2.321262e-06	2.673450e-06	
1.740113	1.619921e-06	-4.446738e-05	3.736667e-07	-4.575406e-06	
1.741114	-7.536935e-06	-2.016632e-05	1.248514e-06	-5.759840e-06	
1.742115	-8.379477e-06	-7.009631e-06	-6.200905e-07	-3.315079e-06	
1.743116	-1.592158e-05	5.034999e-06	7.984201e-07	-7.674237e-06	
1.744117	-1.550035e-05	1.151267e-05	3.355480e-06	-5.127089e-06	
1.745118	5.090843e-06	1.344558e-05	9.922610e-07	7.370963e-09	
1.746119	6.256679e-06	2.751395e-05	5.285342e-07	-7.132562e-07	
1.747120	6.522606e-06	3.839892e-05	2.192335e-06	3.395858e-06	
1.748121	1.122559e-05	2.391770e-05	1.633420e-06	8.775057e-06	
1.749122	-2.187617e-05	1.202685e-05	2.377951e-06	8.781614e-06	
1.750123	-3.524431e-05	7.059075e-06	2.404269e-06	3.568703e-06	
1.751124	8.466082e-06	-7.292730e-06	9.051668e-07	-4.478684e-06	
1.752125	1.383663e-05	-1.156876e-05	1.097374e-06	-5.148258e-06	
1.753126	-2.551046e-05	-6.732797e-06	1.848484e-06	-1.978582e-06	
1.754127	-3.466825e-05	-1.317041e-05	1.307593e-06	-1.093377e-06	
1.755127	-1.357206e-05	-2.408733e-05	-3.995579e-08	3.267058e-06	
1.756128	4.524339e-05	-2.506301e-05	5.953553e-07	6.432213e-06	
1.757129	9.938332e-05	-1.977333e-05	1.417632e-06	5.470957e-06	
1.758130	8.277269e-05	-1.383575e-05	-1.287833e-06	4.259746e-06	
1.759131	4.262228e-05	-9.046246e-06	-4.778692e-06	-8.774090e-07	
1.760132	7.278074e-06	-1.755327e-05	-2.756854e-06	-4.441243e-06	
1.761133	-1.932237e-05	-2.474194e-05	1.852138e-06	1.226780e-07	
1.762134	-2.358091e-05	2.376929e-05	2.598215e-06	3.257889e-06	
1.763135	-3.252799e-05	8.817188e-05	3.183139e-06	1.200011e-06	
1.764136	-4.665990e-05	4.953514e-05	1.330777e-06	8.578047e-07	
1.765137	-5.513048e-05	-2.884351e-05	-2.108021e-06	-1.595497e-07	
1.766138	-5.787350e-05	-1.010079e-05	4.989774e-07	-5.602523e-06	
1.767139	-6.601001e-05	4.179023e-05	4.474057e-07	-6.039828e-06	
1.768140	-6.087763e-05	2.745232e-05	-3.256530e-06	-2.711737e-06	
1.769141	-6.238878e-06	-2.231055e-05	-2.147795e-06	-1.322960e-06	
1.770142	2.825676e-05	-4.201074e-05	-5.278228e-07	1.261671e-06	
1.771143	2.832145e-05	-1.612730e-05	1.367479e-06	-1.296223e-06	
1.772144	4.601389e-05	2.981938e-05	1.686460e-06	-3.055882e-06	
1.773144	3.780538e-05	4.545202e-05	-3.176770e-06	-5.997580e-09	
1.774145	9.832911e-06	9.905478e-06	-5.156168e-06	-6.971751e-07	
1.775146	-9.025479e-07	-2.108783e-05	-3.162388e-06	1.784288e-06	
1.776147	-9.852806e-06	-2.839682e-05	1.258532e-06	3.658464e-06	
1.777148	-1.447065e-05	-1.040723e-05	4.908331e-06	1.977643e-06	
1.778149	-1.086738e-05	4.024041e-05	2.263478e-06	3.468288e-06	
1.779150	-7.919115e-06	3.396784e-05	6.113977e-07	2.550062e-06	
1.780151	-6.092280e-06	-3.511436e-05	1.258303e-06	9.554670e-07	
1.781152	1.208394e-05	-4.917175e-05	1.349763e-06	5.794640e-07	
1.782153	3.562871e-05	5.493541e-06	3.064136e-06	2.946459e-07	
1.783154	3.118174e-05	4.445126e-05	2.214460e-06	1.692883e-06	
1.784155	2.052666e-05	2.381478e-05	-2.366938e-06	-3.716968e-07	
1.785156	2.526790e-05	-9.764212e-06	-6.002613e-06	-2.541420e-06	
1.786157	2.751368e-05	-2.221568e-05	-5.941214e-06	-1.486073e-07	
1.787158	2.922596e-05	-3.263891e-05	-2.144728e-06	-5.393223e-07	
1.788159	1.921355e-05	-3.430305e-05	1.730914e-06	-3.375072e-06	
1.789160	-1.392134e-05	-3.905587e-05	8.310240e-07	-2.085283e-06	
1.790161	-2.371644e-05	-5.966843e-05	-5.056532e-07	-9.142542e-07	
1.791161	-3.241897e-06	-4.028784e-05	1.140390e-06	-1.923501e-06	
1.792162	7.510003e-06	1.436181e-07	-8.000199e-08	-7.056175e-07	
1.793163	3.718830e-06	-1.107563e-05	-5.261382e-08	8.108195e-07	
1.794164	-2.510559e-06	-2.084573e-05	2.194256e-06	1.327891e-06	
1.795165	8.037176e-07	2.129740e-05	9.735218e-07	-4.547405e-07	
1.796166	-1.061864e-05	7.357887e-05	1.763183e-06	-2.416115e-06	
1.797167	-5.868990e-05	8.164996e-05	1.775637e-06	-2.358753e-06	
1.798168	-1.041298e-04	5.282512e-05	-2.519094e-06	-7.152780e-06	
1.799169	-1.142326e-04	6.044698e-05	-1.987787e-06	-8.458988e-06	
1.800170	-8.278175e-05	6.111969e-05	1.201752e-06	-3.247377e-07	
1.801171	-3.754964e-05	-1.090852e-06	-8.397282e-07	5.122207e-06	
1.802172	-1.462093e-05	-4.652470e-05	-2.740102e-06	5.128562e-06	
1.803173	9.837117e-06	-5.482215e-05	1.091320e-06	3.531251e-06	
1.804174	6.159692e-05	-4.452121e-05	3.086137e-06	3.556439e-06	
1.805175	1.267885e-04	-1.857967e-05	2.644636e-07	1.936892e-06	
1.806176	1.577200e-04	-1.030618e-05	3.685230e-07	-8.905160e-07	
1.807177	1.231586e-04	-1.294100e-05	1.328094e-06	2.047241e-06	
1.808178	6.688877e-05	-1.285797e-05	4.519855e-07	4.571327e-06	
1.809178	1.984628e-05	-1.079470e-05	1.022431e-06	4.474255e-06	
1.810179	-2.639649e-05	-3.645829e-06	1.000105e-06	4.014642e-06	
1.811180	-5.339372e-05	-3.402114e-06	2.671444e-07	1.230657e-06	
1.812181	-4.711427e-05	-2.730060e-06	-2.151555e-06	8.244798e-07	
1.813182	-3.680944e-05	7.078036e-06	-4.906138e-06	6.967154e-07	
1.814183	-2.708564e-05	2.013133e-05	-2.270916e-06	-1.997149e-06	
1.815184	6.215687e-06	2.711263e-05	1.367308e-06	-1.976949e-06	
1.816185	3.269214e-05	1.857284e-05	1.325421e-06	-3.072595e-06	
1.817186	8.478011e-06	2.031872e-05	1.193512e-06	-5.085179e-06	
1.818187	-3.411760e-05	3.333002e-05	2.996825e-06	-4.538436e-07	
1.819188	-3.051554e-05	2.460653e-05	1.834971e-06	4.708268e-06	
1.820189	-1.715837e-05	1.277255e-05	-1.839158e-06	2.342882e-06	
1.821190	-3.510619e-05	7.961837e-06	-7.694021e-07	-3.193034e-06	
1.822191	-2.515705e-05	-4.254943e-06	1.425755e-06	-3.502181e-06	
1.823192	-5.822796e-06	-2.529287e-05	1.942361e-06	-5.495407e-07	
1.824193	-2.550419e-05	-4.951848e-05	1.222825e-06	-1.837378e-06	
1.825194	-3.142931e-05	-3.780410e-05	-2.889312e-06	-2.012356e-06	
1.826195	-5.729782e-06	-9.072674e-06	-3.502188e-06	6.624526e-07	
1.827195	-2.159771e-06	-1.381135e-05	-1.214041e-06	-2.468453e-06	
1.828196	-1.326692e-05	-5.657289e-06	7.520807e-08	-4.830564e-06	
1.829197	2.349892e-05	2.652279e-05	1.728549e-06	-1.189045e-07	
1.830198	7.260613e-05	1.936526e-05	-1.956099e-06	1.625769e-06	
1.831199	6.431889e-05	-6.761316e-06	-4.017399e-06	-1.241351e-06	
1.832200	2.844987e-05	-2.881844e-06	-1.195246e-06	6.347081e-08	
1.833201	1.772738e-06	-9.158347e-06	-3.381301e-06	3.624500e-06	
1.834202	-1.557898e-05	-2.555869e-05	-3.976831e-06	-6.657874e-07	
1.835203	-1.437433e-05	-6.872013e-06	1.161577e-07	-5.260364e-06	
1.836204	-1.132391e-05	4.430152e-06	3.311383e-06	4.787611e-07	
1.837205	-3.963655e-05	-5.649727e-06	4.207668e-06	3.231170e-06	
1.838206	-5.137230e-05	-6.297689e-06	2.743629e-06	1.588892e-06	
1.839207	-3.894723e-06	3.405215e-06	9.918386e-07	4.994485e-06	
1.840208	3.681936e-05	1.741113e-05	-6.245695e-07	6.176934e-06	
1.841209	3.495191e-05	6.534504e-06	1.463237e-06	7.154010e-06	
1.842210	2.300317e-05	9.386152e-06	3.813053e-06	8.035857e-06	
1.843211	1.826294e-05	5.558749e-05	1.670354e-06	1.192560e-06	
1.844212	1.445095e-05	5.925651e-05	1.993436e-06	-2.814093e-06	
1.845212	1.912628e-06	9.913700e-06	2.912799e-06	-6.327784e-07	
1.846213	-1.564415e-05	-2.514398e-05	6.476770e-07	-8.651415e-07	
1.847214	-1.657399e-05	-3.603250e-05	-3.422495e-07	-4.216176e-06	
1.848215	-1.406945e-05	-5.118841e-05	1.108256e-06	-1.210234e-05	
1.849216	-5.395471e-05	-4.825988e-05	2.991629e-06	-1.848430e-05	
1.850217	-8.476958e-05	-1.470915e-06	2.428973e-06	-1.188983e-05	
1.851218	-2.771568e-05	7.973076e-06	-4.433859e-07	2.103034e-07	
1.852219	6.592231e-05	-3.227326e-05	-2.376156e-06	4.509207e-06	
1.853220	8.830342e-05	-3.152401e-05	-3.606226e-06	1.493999e-06	
1.854221	4.861263e-05	4.486753e-06	-5.619260e-06	-1.081897e-06	
1.855222	4.583008e-05	2.910315e-05	-5.942457e-06	1.834290e-06	
1.856223	5.244747e-05	1.772603e-05	-2.968408e-06	5.249066e-06	
1.857224	1.580714e-05	-4.818958e-06	1.920174e-06	6.451738e-06	
1.858225	-2.368053e-05	1.958010e-05	3.154720e-06	8.363098e-06	
1.859226	-4.546964e-05	2.501599e-05	-1.708459e-06	7.170893e-06	
1.860227	-4.227937e-05	-2.064898e-05	-2.785458e-06	5.831533e-06	
1.861228	-5.709137e-05	-2.517145e-05	-1.168853e-06	7.599428e-06	
1.862229	-7.632253e-05	1.571160e-06	-1.946135e-06	5.986908e-06	
1.863229	-1.865981e-05	1.640506e-05	1.121969e-06	4.974526e-06	
1.864230	4.914020e-05	2.482892e-05	2.469428e-06	5.281693e-06	
1.865231	7.219212e-05	1.944950e-05	-1.648494e-08	-9.961004e-07	
1.866232	6.269373e-05	1.193500e-05	6.124179e-09	-5.727355e-06	
1.867233	8.570005e-06	1.426670e-05	5.515010e-07	-3.821147e-06	
1.868234	-1.931420e-05	2.552322e-05	-5.589785e-07	-7.847960e-06	
1.869235	-6.480580e-06	3.195634e-05	-2.152062e-06	-1.348825e-05	
1.870236	-2.654683e-05	2.905376e-05	-3.074783e-08	-7.052112e-06	
1.871237	-5.987440e-05	3.181079e-05	9.933044e-07	-2.319406e-06	
1.872238	-1.066701e-04	1.515953e-05	-8.773787e-07	-4.900519e-06	
1.873239	-1.268181e-04	-3.130184e-05	1.862156e-06	-1.791317e-06	
1.874240	-1.594450e-05	-5.135305e-05	2.312920e-06	2.470639e-07	
1.875241	7.108186e-05	-1.925638e-05	3.949884e-07	8.184357e-07	
1.876242	1.457634e-05	1.056880e-05	7.913376e-07	5.219890e-06	
1.877243	-1.862449e-05	1.975203e-06	-1.846727e-06	1.729118e-06	
1.878244	1.035104e-05	-4.283359e-06	-9.255162e-07	-4.214327e-06	
1.879245	3.469474e-05	-4.576841e-06	3.069873e-06	-2.701593e-06	
1.880246	7.266912e-05	-3.430020e-05	3.794084e-06	-2.842196e-07	
1.881246	1.158400e-04	-5.127314e-05	4.519024e-06	3.283352e-06	
1.882247	1.171675e-04	-3.330168e-05	2.451643e-06	5.993775e-06	
1.883248	6.871553e-05	-2.573406e-05	3.483164e-07	4.835088e-06	
1.884249	2.612533e-05	-2.074250e-05	-9.270229e-07	2.854816e-06	
1.885250	1.726469e-05	-2.915469e-06	-3.550615e-06	-1.717188e-06	
1.886251	1.359845e-05	3.883343e-06	-2.252317e-06	-3.026313e-06	
1.887252	-4.217138e-06	3.463856e-06	-1.502620e-06	-1.111765e-06	
1.888253	-4.625401e-05	4.863766e-07	-3.781637e-06	-8.120427e-07	
1.889254	-8.963577e-05	-7.240308e-06	-5.187166e-06	4.177968e-06	
1.890255	-9.924896e-05	1.805388e-06	-3.517671e-06	4.512630e-06	
1.891256	-9.060524e-05	2.225955e-05	5.015885e-08	-1.635427e-06	
1.892257	-6.823636e-05	2.664581e-05	7.918076e-07	-1.780220e-06	
1.893258	-2.522206e-05	1.599520e-05	1.079772e-06	-2.171793e-06	
1.894259	9.533239e-06	1.391619e-05	1.245083e-06	-2.799803e-06	
1.895260	3.979628e-05	2.509796e-05	1.867918e-06	-1.902778e-07	
1.896261	6.617132e-05	2.424615e-05	4.827560e-06	-1.378199e-06	
1.897262	5.777460e-05	1.017477e-05	3.586536e-06	-3.833570e-06	
1.898263	3.028357e-05	-1.134821e-06	4.652946e-08	-2.087136e-06	
1.899263	8.973683e-06	-8.051179e-06	2.580954e-07	1.544967e-06	
1.900264	-3.516694e-06	-3.294994e-06	4.223724e-07	-8.105892e-09	
1.901265	-1.702134e-05	8.223435e-06	-9.758912e-07	-3.873964e-06	
1.902266	-3.722375e-05	8.173905e-06	-1.835715e-07	4.791559e-07	
1.903267	-4.251585e-05	-1.136760e-06	2.092216e-06	3.928689e-06	
1.904268	-2.789831e-05	-7.659037e-06	2.782363e-06	7.165394e-07	
1.905269	4.589989e-07	-1.275839e-05	8.382514e-07	2.488867e-06	
1.906270	3.227761e-05	-1.877995e-05	-2.414937e-06	4.978200e-06	
1.907271	3.527353e-05	-1.827839e-05	-2.055934e-06	3.536301e-06	
1.908272	1.038481e-05	-7.381197e-06	1.485958e-06	3.359839e-06	
1.909273	-1.130411e-05	5.496096e-06	1.586273e-06	1.808586e-06	
1.910274	-1.080465e-05	5.799671e-06	-9.094369e-07	4.828508e-07	
1.911275	-3.247358e-06	-2.030768e-06	5.708215e-09	1.836099e-06	
1.912276	-6.193750e-06	7.536514e-07	1.593008e-06	1.707571e-06	
1.913277	8.574794e-06	5.411752e-06	6.427890e-07	-7.986896e-07	
1.914278	2.345823e-05	-8.529981e-07	4.226284e-08	-2.097344e-06	
1.915279	5.283961e-06	5.316903e-08	-1.663139e-06	-1.537236e-08	
1.916280	-1.619633e-05	9.542815e-06	-3.655790e-06	-7.443954e-07	
1.917280	-3.923189e-05	5.848642e-06	-4.876069e-06	-4.123403e-06	
1.918281	-5.513193e-05	-6.048568e-06	-5.443991e-06	-3.760829e-06	
1.919282	-4.797281e-05	-1.399108e-05	-2.606692e-06	-2.645280e-06	
1.920283	-4.738953e-05	-1.397548e-05	-3.582588e-07	-2.083826e-07	
1.921284	-1.186851e-05	-3.782179e-06	1.716359e-06	1.484853e-06	
1.922285	8.776736e-05	5.172925e-06	4.027975e-06	4.779254e-07	
1.923286	1.348411e-04	1.403817e-05	1.757572e-06	1.112010e-06	
1.924287	8.046623e-05	2.101814e-05	5.175044e-07	-6.209556e-07	
1.925288	2.005531e-05	2.477905e-05	1.048436e-07	-1.436431e-06	
1.926289	1.222940e-06	4.977065e-05	-2.964779e-06	2.488157e-07	
1.927290	-1.294377e-05	5.821424e-05	-2.889198e-06	-5.779563e-07	
1.928291	-3.765543e-05	9.957897e-06	-1.989448e-06	-1.117430e-06	
1.929292	-1.646158e-05	-1.626515e-05	-1.123350e-06	-2.696341e-06	
1.930293	2.745542e-05	4.302990e-06	2.273710e-06	-2.237236e-06	
1.931294	-8.425805e-06	-8.245176e-07	1.838479e-06	-9.164233e-09	
1.932295	-5.453635e-05	-2.790962e-05	-3.834546e-07	-1.375542e-06	
1.933296	-2.185151e-05	-4.980533e-05	-2.182735e-08	-8.204144e-07	
1.934297	-3.922111e-06	-5.533023e-05	-1.429772e-07	-7.496961e-07	
1.935297	-3.234807e-05	-4.937919e-05	-2.904237e-08	-2.651441e-06	
1.936298	-2.269126e-05	-7.807839e-05	-7.621149e-07	-8.545557e-07	
1.937299	4.493337e-06	-8.779918e-05	-1.423835e-06	7.321827e-07	
1.938300	-9.598726e-06	-1.600739e-05	2.015642e-06	-5.942613e-07	
1.939301	-1.633000e-05	5.222459e-05	4.511660e-06	-1.049683e-06	
1.940302	-1.053748e-05	5.394194e-05	3.533080e-06	1.627081e-07	
1.941303	-2.428280e-05	2.622519e-05	3.127033e-06	8.349311e-07	
1.942304	1.911789e-05	9.522970e-06	2.436992e-06	4.943836e-06	
1.943305	9.291809e-05	1.565951e-05	7.659102e-07	8.524985e-06	
1.944306	6.476162e-05	3.605080e-05	-1.125503e-06	4.065269e-06	
1.945307	7.360716e-06	3.769245e-05	-1.822210e-06	7.817655e-07	
1.946308	1.186059e-05	1.560891e-05	3.679911e-07	1.593546e-06	
1.947309	7.532429e-06	6.609780e-06	3.230719e-07	2.717167e-06	
1.948310	8.014868e-06	7.477463e-06	-2.354468e-06	1.217612e-06	
1.949311	3.793776e-05	2.781950e-06	-1.000539e-06	-1.812514e-06	
1.950312	2.029190e-05	-1.424614e-06	1.543322e-06	9.071137e-07	
1.951313	-3.433431e-05	-7.063144e-06	1.690608e-06	2.186599e-06	
1.952314	-6.279830e-05	-5.139340e-06	1.837526e-06	1.300214e-07	
1.953314	-6.995648e-05	7.199981e-06	-1.485730e-07	5.346374e-07	
1.954315	-8.102146e-05	1.242344e-05	-3.347526e-06	-3.699214e-07	
1.955316	-6.854824e-05	4.213642e-06	-2.311967e-06	-2.317138e-06	
1.956317	5.522251e-06	-6.636228e-06	1.890361e-06	-2.342451e-06	
1.957318	6.978045e-05	-9.364036e-06	2.827775e-06	-6.723504e-08	
1.958319	5.119152e-05	-5.661336e-06	-1.422394e-06	-2.289855e-06	
1.959320	2.342543e-05	-5.814562e-06	-2.644260e-06	-5.367517e-06	
1.960321	3.458599e-05	-1.240652e-05	4.488152e-07	-2.118206e-07	
1.961322	2.513703e-05	-1.522639e-05	-2.059553e-07	1.006745e-06	
1.962323	2.172995e-06	-9.445581e-06	-2.064075e-06	-1.076342e-06	
1.963324	-1.377345e-06	-6.861360e-06	-1.768148e-07	-5.009168e-07	
1.964325	-9.174433e-06	-1.232549e-05	1.272249e-06	-1.948864e-06	
1.965326	-1.244948e-05	-1.048389e-05	1.528486e-06	7.291367e-07	
1.966327	-2.332058e-05	-3.092362e-06	1.972787e-06	3.953921e-07	
1.967328	-5.484237e-05	2.928176e-06	-1.365243e-06	-5.112789e-06	
1.968329	-4.521483e-05	1.490007e-05	-3.253914e-06	-3.374099e-06	
1.969330	5.540143e-06	1.563445e-05	-6.846137e-07	-7.886739e-07	
1.970331	3.815559e-05	4.368623e-06	-1.227522e-06	-2.245150e-06	
1.971331	2.829195e-05	4.342410e-06	-9.994464e-07	-4.269209e-06	
1.972332	1.382163e-06	1.045067e-05	6.664785e-07	-2.315800e-06	
1.973333	-1.615670e-05	1.230829e-05	1.186918e-08	3.829643e-06	
1.974334	-4.472386e-05	3.747057e-06	9.485793e-07	3.578514e-06	
1.975335	-3.307739e-05	-4.536962e-06	4.194660e-07	-2.564417e-07	
1.976336	2.766815e-05	8.467643e-07	-1.504356e-06	9.471292e-07	
1.977337	4.229011e-05	7.018598e-06	7.937590e-08	2.013837e-06	
1.978338	4.373658e-05	1.111772e-05	1.874530e-06	1.568478e-06	
1.979339	5.957929e-05	7.370673e-06	-5.011978e-07	2.952725e-06	
1.980340	4.103443e-05	-5.820617e-06	-2.430712e-06	3.647118e-06	
1.981341	1.160789e-05	-9.380762e-06	2.558517e-07	3.331129e-06	
1.982342	-9.247412e-06	-9.182919e-06	7.257254e-07	3.805254e-06	
1.983343	-2.295892e-05	-9.704254e-06	3.745488e-07	3.983006e-06	
1.984344	-3.268601e-05	-2.589862e-06	1.950467e-06	2.592152e-06	
1.985345	-4.059721e-05	4.970300e-07	-3.442672e-07	6.336649e-07	
1.986346	-2.599551e-05	-3.762786e-06	-1.001018e-06	1.654689e-06	
1.987347	3.450311e-06	-4.015120e-06	6.254975e-07	2.176606e-06	
1.988347	3.265279e-05	-3.974414e-06	-1.386857e-06	-2.256998e-06	
1.989348	2.982567e-05	-6.598675e-06	-1.809709e-06	-2.476639e-06	
1.990349	-1.208173e-05	2.121565e-06	-3.412461e-07	1.358985e-06	
1.991350	-2.923838e-07	1.044195e-05	6.303382e-07	-2.212809e-06	
1.992351	4.471888e-05	2.203680e-06	2.695422e-06	-6.655805e-06	
1.993352	1.389922e-05	4.132675e-06	1.784352e-06	-4.008317e-06	
1.994353	-2.668791e-05	8.989937e-06	-8.324314e-07	-2.302863e-06	
1.995354	-5.296049e-06	2.377670e-06	5.011211e-07	-3.351422e-06	
1.996355	1.334476e-05	2.017623e-05	1.870197e-06	-1.913677e-07	
1.997356	-1.376655e-05	2.819040e-05	-5.106486e-07	2.805401e-06	
1.998357	-3.600591e-05	-6.541451e-06	-4.141431e-06	3.820526e-07	
1.999358	-2.646149e-05	-2.610310e-05	-3.302685e-06	-2.246531e-06	
2.000359	-8.275708e-05	-3.127495e-05	2.027152e-06	-2.895140e-06	
2.001360	-1.702278e-04	-3.869069e-05	2.576955e-06	-1.695136e-06	
2.002361	-1.254022e-04	-2.327159e-05	1.004931e-06	-4.641790e-07	
2.003362	-2.504987e-05	-1.430405e-05	2.633850e-06	6.100122e-07	
2.004363	2.136554e-05	-2.392298e-05	5.031481e-07	2.059038e-06	
2.005364	8.207480e-05	-1.148947e-05	-2.170931e-06	-4.253078e-07	
2.006364	1.603403e-04	1.575490e-05	-1.417292e-06	-1.791243e-06	
2.007365	1.533374e-04	2.133763e-05	-2.591212e-06	-6.797568e-08	
2.008366	5.935979e-05	1.039228e-05	-2.131219e-06	3.481305e-07	
2.009367	5.472231e-06	6.536543e-06	1.681471e-07	2.566957e-06	
2.010368	7.521259e-06	1.262629e-05	9.818200e-07	3.118171e-06	
2.011369	2.353009e-05	1.929221e-05	4.268559e-06	9.916044e-07	
2.012370	6.319618e-05	1.913251e-05	4.565936e-06	5.370540e-07	
2.013371	7.079851e-05	1.281383e-05	1.341999e-06	-1.087292e-06	
2.014372	5.657647e-05	5.988529e-06	2.139336e-06	-1.838143e-06	
2.015373	5.908503e-05	1.296067e-06	9.676919e-07	-2.204022e-07	
2.016374	3.297930e-05	-3.348092e-06	-1.509261e-06	4.727493e-08	
2.017375	-6.708100e-07	-5.932771e-06	-8.610567e-07	1.218693e-07	
2.018376	-2.876819e-05	2.397538e-06	-2.812462e-06	1.839056e-06	
2.019377	-7.805860e-05	1.725427e-05	-5.362720e-06	3.659935e-06	
2.020378	-1.130524e-04	2.424280e-05	-4.566811e-06	3.277101e-06	
2.021379	-1.164154e-04	1.729019e-05	-2.515796e-06	2.855228e-06	
2.022380	-9.884274e-05	5.223294e-06	1.162691e-07	2.290213e-06	
2.023381	-8.871954e-05	-1.582159e-06	3.271200e-06	-1.275988e-06	
2.024381	-1.011269e-04	-6.357928e-06	4.650381e-06	-1.374674e-06	
2.025382	-3.997985e-05	-5.357452e-06	2.608523e-06	1.771132e-06	
2.026383	5.338240e-05	-6.348336e-06	3.123940e-07	-5.312940e-07	
2.027384	7.081122e-06	-2.043545e-05	-6.178234e-07	-3.306244e-06	
2.028385	-6.438234e-05	-2.284342e-05	-1.437972e-06	-1.093346e-06	
2.029386	-4.168300e-05	-1.060590e-05	-1.685300e-06	3.360671e-07	
2.030387	-5.934420e-05	-2.239203e-06	-2.714765e-06	-1.190157e-06	
2.031388	-9.428378e-05	3.921661e-06	-3.615265e-06	-1.027927e-06	
2.032389	-7.305645e-06	5.810978e-06	-9.364076e-07	9.378784e-07	
2.033390	1.004570e-04	3.460108e-06	1.842303e-06	2.196009e-08	
2.034391	1.043466e-04	5.487795e-07	1.353463e-06	-1.726678e-07	
2.035392	1.071589e-04	7.118276e-07	2.245361e-06	1.810534e-06	
2.036393	1.565463e-04	3.553110e-06	5.062678e-06	-1.167252e-06	
2.037394	1.766532e-04	-5.696185e-07	5.143598e-06	-3.172204e-06	
2.038395	1.545001e-04	-7.977958e-06	1.728032e-06	1.347375e-06	
2.039396	8.332573e-05	-1.426388e-05	-2.503936e-06	1.177750e-06	
2.040397	2.619518e-06	-1.521225e-05	-1.261812e-06	-2.966894e-06	
2.041398	-2.358128e-05	-8.948185e-06	1.669412e-06	-3.637802e-07	
2.042398	-4.251424e-05	-8.756211e-06	-1.805408e-06	1.423039e-06	
2.043399	-7.458848e-05	-1.090582e-05	-3.492370e-06	-1.118769e-06	
2.044400	-5.152824e-05	-1.042157e-05	-3.165096e-07	1.040481e-07	
2.045401	-2.031900e-06	-7.589419e-06	3.439401e-07	-8.499274e-07	
2.046402	-4.268253e-06	2.462117e-06	-1.488745e-06	-3.762447e-06	
2.047403	-3.015833e-05	7.166942e-06	-3.335963e-06	-1.702162e-06	
2.048404	-2.383662e-05	8.939618e-06	-4.300226e-06	-7.742078e-07	
2.049405	2.247781e-05	1.374240e-05	-2.793415e-06	-3.331596e-06	
2.050406	4.377714e-05	1.005064e-05	-5.524087e-08	-4.922127e-06	
2.051407	-1.593710e-05	8.800550e-06	2.321572e-06	-1.671040e-06	
2.052408	-1.016308e-04	1.256792e-05	5.283315e-06	3.068996e-06	
2.053409	-1.437906e-04	9.190211e-06	3.077184e-06	4.401054e-06	
2.054410	-1.375277e-04	6.583416e-06	-2.235991e-06	4.425342e-06	
2.055411	-1.381989e-04	5.590830e-06	1.335975e-07	2.396988e-06	
2.056412	-1.731052e-04	-2.878738e-07	2.123858e-06	6.123622e-07	
2.057413	-1.688311e-04	-6.170839e-06	-1.959519e-07	1.306044e-06	
2.058414	-5.263687e-05	-3.999271e-06	1.518274e-06	2.094445e-06	
2.059415	1.214574e-04	3.659678e-06	2.049117e-06	2.928771e-06	
2.060415	2.225514e-04	4.004387e-06	-1.042312e-06	1.210168e-06	
2.061416	2.347632e-04	-6.075081e-08	-1.097362e-06	-5.289192e-07	
2.062417	2.105545e-04	-2.393191e-07	7.511739e-07	8.860797e-07	
2.063418	1.336257e-04	3.898274e-07	5.566583e-07	7.578748e-07	
2.064419	5.775981e-05	-1.420872e-06	-1.303650e-06	-2.559257e-06	
2.065420	6.672521e-05	-8.254996e-06	-4.486033e-06	-5.614259e-06	
2.066421	7.341845e-05	-1.058467e-05	-5.833728e-06	-3.982123e-06	
2.067422	-9.391910e-06	-1.304945e-06	-2.041433e-06	-2.885876e-06	
2.068423	-1.013506e-04	4.671597e-06	9.963440e-07	-4.604932e-06	
2.069424	-1.459556e-04	5.079671e-06	1.775636e-06	-6.048766e-08	
2.070425	-1.717364e-04	7.497938e-06	3.230105e-06	4.599378e-06	
2.071426	-1.571173e-04	6.362314e-06	2.860717e-06	4.219466e-06	
2.072427	-8.206450e-05	4.977093e-06	3.312866e-06	5.209788e-06	
2.073428	4.555791e-05	3.605674e-06	3.796667e-06	3.816587e-06	
2.074429	1.605907e-04	-3.937844e-06	4.249195e-07	1.120364e-06	
2.075430	1.223896e-04	-7.415372e-06	-1.300777e-06	1.022952e-06	
2.076431	5.711435e-06	-5.258069e-06	-5.202113e-07	7.456602e-07	
2.077432	-7.667485e-06	-1.266536e-06	-1.519871e-06	1.387142e-06	
2.078432	1.730501e-05	7.370061e-06	-2.489628e-06	3.663333e-08	
2.079433	3.636810e-06	9.838665e-06	-1.301721e-06	-2.711394e-06	
2.080434	-1.746792e-05	5.169459e-06	1.535884e-06	-1.323996e-06	
2.081435	-5.391631e-05	7.972287e-06	4.829700e-06	-9.456937e-07	
2.082436	-8.829192e-05	1.033589e-05	4.053906e-06	-2.926315e-06	
2.083437	-9.404844e-05	1.768288e-06	-4.955041e-07	-2.430397e-06	
2.084438	-6.230213e-05	-2.876386e-06	-2.171414e-06	-8.316629e-07	
2.085439	1.674370e-06	-1.173321e-06	-3.730952e-07	1.844395e-06	
2.086440	4.918621e-05	-4.891787e-06	8.221397e-07	2.630340e-06	
2.087441	6.365740e-05	-1.186971e-05	-8.539502e-07	-1.117292e-06	
2.088442	4.232040e-05	-1.897824e-05	-1.847863e-06	-2.677889e-06	
2.089443	2.084717e-05	-2.214704e-05	-1.016811e-06	-3.517481e-06	
2.090444	5.254488e-05	-1.905398e-05	-2.998536e-06	-4.444041e-06	
2.091445	6.929944e-05	-1.532209e-05	-3.951272e-06	-6.369469e-07	
2.092446	4.732599e-05	-1.114021e-05	-2.025472e-06	2.075094e-06	
2.093447	3.582052e-05	-7.455731e-06	-3.436425e-06	1.698922e-07	
2.094448	1.724909e-05	-2.707490e-06	-4.463394e-06	-1.331252e-06	
2.095449	-6.375754e-06	3.564522e-06	-1.472306e-06	2.842903e-06	
2.096449	-2.227885e-05	2.489172e-06	-9.285984e-07	5.939315e-06	
2.097450	-1.350975e-05	-1.077026e-06	-1.105693e-06	2.899043e-06	
2.098451	1.425314e-05	-4.927468e-06	1.729486e-06	3.036864e-06	
2.099452	-1.481973e-06	-9.045250e-06	2.336209e-06	3.573321e-06	
2.100453	-2.238496e-05	1.150941e-06	2.803627e-06	1.433429e-06	
2.101454	-5.821200e-06	9.340425e-06	4.875916e-06	1.252035e-06	
2.102455	-1.334288e-05	2.071754e-06	3.698434e-06	2.511521e-08	
2.103456	-3.478496e-05	7.833025e-06	3.324210e-06	-1.751081e-06	
2.104457	-2.819525e-05	2.458265e-05	4.429199e-06	-9.272388e-07	
2.105458	-2.032793e-05	2.485066e-05	3.074660e-06	8.355463e-07	
2.106459	-2.560703e-05	1.589677e-05	1.053653e-06	-1.117729e-06	
2.107460	-2.807587e-05	1.670945e-05	-1.785954e-06	-3.498875e-06	
2.108461	-2.719611e-05	1.977709e-05	-2.478317e-06	-1.776957e-06	
2.109462	-3.092116e-05	1.370947e-05	-3.445118e-07	-2.533608e-06	
2.110463	-2.909777e-05	6.848983e-06	-6.431875e-07	-4.281305e-06	
2.111464	-2.107494e-05	3.420842e-06	-1.731591e-06	-4.137828e-06	
2.112465	-1.797925e-05	3.004125e-06	-2.109933e-06	-5.011689e-06	
2.113466	-8.655172e-06	3.154842e-06	-1.887820e-06	-2.684531e-06	
2.114466	8.321734e-06	-2.133701e-06	2.051565e-07	5.699277e-07	
2.115467	1.839163e-05	-3.487320e-06	-1.237657e-07	2.634934e-07	
2.116468	2.280010e-05	-2.137925e-06	-1.985919e-06	3.894312e-07	
2.117469	2.263600e-05	-9.085803e-06	-1.315575e-06	2.663343e-06	
2.118470	1.655156e-05	-1.358067e-05	-2.280338e-06	2.706729e-06	
2.119471	1.261883e-05	-1.006648e-05	-3.052242e-06	-1.400990e-06	
2.120472	1.427194e-05	-8.697310e-06	-9.956378e-07	-3.235504e-07	
2.121473	2.080037e-05	-1.191728e-05	-1.129974e-06	4.601391e-06	
2.122474	2.544901e-05	-1.288015e-05	-1.079852e-06	2.777763e-06	
2.123475	1.953625e-05	-1.060271e-05	2.863457e-06	2.427746e-06	
2.124476	1.270978e-05	-9.388866e-06	4.683095e-06	5.476295e-06	
2.125477	1.098411e-05	-7.843857e-06	1.358062e-06	3.946146e-06	
2.126478	1.003947e-05	-6.348454e-06	2.996128e-07	1.470371e-06	
2.127479	9.769110e-06	-5.102947e-06	2.700669e-06	-2.142545e-06	
2.128480	5.098228e-06	-3.231273e-06	4.072875e-06	-3.403773e-06	
2.129481	-1.354909e-06	-4.355717e-06	6.202235e-06	1.204913e-06	
2.130482	-3.357904e-06	-3.114815e-06	4.994163e-06	6.820364e-07	
2.131483	-8.426565e-06	3.699163e-06	-3.029190e-07	-3.051623e-06	
2.132483	-1.393840e-05	5.369899e-06	-1.484337e-06	-2.058497e-06	
2.133484	-7.569308e-06	1.807587e-06	-1.425016e-06	-1.312408e-06	
2.134485	1.914504e-07	3.189823e-06	-1.303657e-06	-1.574097e-06	
2.135486	-2.941031e-06	6.943058e-06	9.825804e-07	7.160259e-07	
2.136487	-4.139425e-06	6.689220e-06	-9.251346e-08	2.604147e-06	
2.137488	-2.316138e-07	6.784537e-06	-2.628125e-06	1.333069e-06	
2.138489	-9.402908e-07	7.646546e-06	-1.573977e-06	1.350932e-06	
2.139490	-2.408718e-06	5.248025e-06	7.376712e-07	1.679350e-06	
2.140491	-2.953377e-06	5.290590e-06	-2.155477e-07	-1.525102e-06	
2.141492	-3.638516e-06	6.790696e-06	-1.468580e-06	-1.580948e-06	
2.142493	-2.472518e-06	1.584309e-06	-1.586016e-07	8.108816e-07	
2.143494	-1.984428e-06	-2.777617e-06	-2.828407e-06	-2.129133e-06	
2.144495	1.084887e-08	-1.031804e-06	-5.302715e-06	-4.276996e-06	
2.145496	2.617056e-06	-1.103748e-06	-3.505567e-06	-1.604945e-06	
2.146497	2.153755e-06	-2.015980e-06	-4.682302e-06	-2.146072e-06	
2.147498	9.705951e-07	1.291069e-06	-5.448359e-06	-3.834113e-06	
2.148499	-1.629497e-06	4.920895e-06	-2.379653e-06	-7.301239e-07	
2.149500	-2.689848e-06	4.571718e-06	3.633940e-07	7.207961e-07	
2.150500	-1.896410e-06	3.006193e-06	1.183266e-06	-1.048074e-06	
2.151501	-2.995531e-06	8.509683e-07	8.796418e-07	-4.440188e-07	
2.152502	-1.637153e-06	-9.495235e-07	1.093821e-06	1.190736e-07	
2.153503	-9.135985e-07	7.836069e-07	1.795170e-06	-5.497887e-07	
2.154504	-2.266612e-06	-2.075318e-06	2.936747e-06	8.490580e-07	
2.155505	3.444122e-07	-5.786653e-06	2.270862e-06	2.176749e-06	
2.156506	4.484804e-07	-2.198509e-06	-8.352993e-07	1.274476e-06	
2.157507	-2.580577e-06	-3.269564e-06	-1.844536e-06	4.725459e-08	
2.158508	-1.412841e-06	-5.897598e-06	1.011841e-07	-1.113529e-07	
2.159509	-9.322741e-07	-3.738266e-06	1.957836e-06	5.733808e-07	
2.160510	-3.383336e-06	-3.363916e-06	2.313656e-06	2.359071e-06	
2.161511	-3.302445e-06	-9.089748e-07	4.146162e-06	4.294919e-06	
2.162512	-6.036283e-10	1.713348e-06	5.828499e-06	4.102773e-06	
2.163513	5.126739e-07	-1.350796e-07	4.153951e-06	3.542715e-06	
2.164514	-3.698349e-06	-1.932770e-06	3.240119e-06	2.471260e-06	
2.165515	-3.089501e-06	-3.839026e-06	2.309108e-06	-1.414120e-06	
2.166516	2.536074e-06	-5.298707e-06	6.151704e-07	-2.536116e-06	
2.167517	3.381826e-06	-3.964814e-06	2.456020e-07	1.164473e-06	
2.168517	2.478389e-06	-2.100940e-08	1.054444e-06	2.026687e-06	
2.169518	3.310431e-06	5.921401e-06	9.489536e-07	-6.267374e-07	
2.170519	1.302037e-06	8.204280e-06	-4.199234e-06	-1.069218e-06	
2.171520	-2.155427e-06	4.065462e-06	-6.495102e-06	-7.428536e-07	
2.172521	-1.996019e-06	-6.523963e-07	-3.410585e-06	-1.662929e-06	
2.173522	1.251860e-06	-1.513657e-06	-4.186617e-06	-1.472780e-06	
2.174523	1.874240e-06	-1.220000e-06	-5.293561e-06	-1.170272e-06	
2.175524	1.918840e-07	-4.382478e-06	-2.857752e-06	5.752913e-08	
2.176525	7.443158e-07	-6.606112e-06	-6.401953e-07	2.246020e-06	
2.177526	9.305110e-07	-3.826437e-06	-8.310062e-07	1.990932e-06	
2.178527	4.060060e-07	6.917497e-07	-7.525645e-08	1.612913e-06	
2.179528	1.759469e-06	4.998427e-06	3.394720e-06	8.601740e-07	
2.180529	1.410083e-06	3.483158e-06	5.185069e-06	6.016021e-07	
2.181530	-8.128139e-07	-1.405374e-08	4.144931e-06	2.859060e-06	
2.182531	6.735533e-07	2.916011e-06	8.839472e-07	5.224778e-08	
2.183532	2.903648e-06	7.011254e-07	-7.836176e-07	-4.404122e-06	
2.184533	1.679116e-06	-3.845524e-06	6.415123e-07	-3.212167e-06	
2.185534	2.382569e-06	-1.777255e-07	5.852182e-07	-3.620568e-06	
2.186534	3.184610e-06	1.072260e-06	-1.036090e-06	-5.235199e-06	
2.187535	5.862560e-07	5.419491e-06	-2.472757e-06	-2.164416e-06	
2.188536	-3.986079e-07	1.470936e-05	-1.927890e-06	8.081271e-07	
2.189537	-1.031865e-06	1.677211e-05	5.600547e-07	-4.301577e-07	
2.190538	-2.726447e-06	1.129273e-05	1.112925e-06	-3.003361e-06	
2.191539	-2.429427e-06	-6.071231e-06	7.640430e-09	-4.427793e-06	
2.192540	-1.715144e-06	-8.493054e-06	1.789148e-07	-3.988340e-06	
2.193541	-2.608726e-06	1.822049e-05	-9.340382e-07	-2.401436e-06	
2.194542	-4.365953e-06	2.609977e-05	-2.373378e-06	-2.719827e-06	
2.195543	-6.024306e-06	9.913696e-06	-6.564991e-07	-2.880484e-06	
2.196544	-4.848930e-06	-6.734033e-06	-9.781401e-09	-1.153438e-06	
2.197545	1.957876e-07	-2.158168e-05	-5.057434e-07	6.372480e-07	
2.198546	2.564045e-06	-2.740182e-05	-1.824760e-06	5.333333e-06	
2.199547	5.263553e-07	-3.782744e-05	-3.320172e-06	7.122030e-06	
2.200548	-7.154524e-07	-4.233739e-05	-2.704411e-07	3.587766e-06	
2.201549	-8.885581e-07	-9.927927e-06	1.709385e-06	4.679163e-06	
2.202550	1.397210e-07	2.809239e-05	1.312501e-06	4.549667e-06	
2.203551	1.737463e-06	3.792159e-05	2.616838e-06	3.357307e-07	
2.204551	-5.594993e-07	2.550315e-05	3.296783e-06	1.153757e-06	
2.205552	-5.239377e-06	1.230688e-06	5.095994e-06	3.405960e-06	
2.206553	-4.050822e-06	-1.217548e-05	5.753639e-06	3.633819e-06	
2.207554	6.686531e-07	-9.817656e-06	4.484702e-07	3.550674e-06	
2.208555	-1.286216e-06	-1.762086e-05	-4.362940e-06	2.570326e-06	
2.209556	-3.816315e-06	-2.794788e-05	-3.435750e-06	6.662648e-07	
2.210557	1.217017e-06	-2.213178e-05	-1.958058e-07	-1.148023e-06	
2.211558	4.695867e-06	-9.880757e-06	1.257964e-06	-2.162070e-06	
2.212559	3.402985e-06	1.182597e-05	-1.149527e-06	-2.959519e-06	
2.213560	4.653873e-06	2.785661e-05	-2.740165e-06	-1.496269e-06	
2.214561	7.550254e-06	1.751211e-05	-1.988979e-07	-3.837155e-07	
2.215562	1.019963e-05	1.178453e-05	8.772632e-07	-1.082379e-06	
2.216563	1.312530e-05	1.302379e-05	2.042491e-06	2.168486e-06	
2.217564	1.561617e-05	1.039612e-06	3.757895e-06	4.112228e-06	
2.218565	1.830201e-05	-1.239609e-06	9.873558e-07	-4.560176e-07	
2.219566	1.813988e-05	6.927411e-06	-6.045459e-07	-5.101730e-06	
2.220567	1.569581e-05	3.267569e-07	2.548922e-07	-3.767155e-06	
2.221568	1.232720e-05	-1.282048e-05	-2.948813e-07	2.710149e-08	
2.222568	4.672348e-06	-1.264177e-05	7.328098e-08	-1.994281e-06	
2.223569	-4.312003e-06	-2.671177e-06	-3.853171e-07	-3.799243e-06	
2.224570	-9.970675e-06	3.195804e-06	-2.398128e-06	1.051294e-06	
2.225571	-1.061699e-05	2.298631e-07	-2.777461e-06	3.059975e-06	
2.226572	-1.130095e-05	-3.793545e-06	-2.200465e-06	-2.074001e-06	
2.227573	-1.565554e-05	-7.967753e-07	-6.751364e-07	-5.465518e-06	
2.228574	-1.594998e-05	1.518276e-06	3.488143e-07	-2.516474e-06	
2.229575	-1.325473e-05	1.559109e-07	-1.834009e-06	2.312653e-06	
2.230576	-1.285804e-05	2.334802e-06	-2.769876e-06	4.447553e-06	
2.231577	-1.252240e-05	4.176540e-06	-1.508924e-06	1.930778e-06	
2.232578	-1.310661e-05	4.053037e-06	-8.803058e-07	7.074739e-07	
2.233579	-1.408566e-05	4.187039e-06	-1.278288e-08	3.463004e-06	
2.234580	-1.286178e-05	3.388752e-06	-9.729136e-07	2.428880e-06	
2.235581	-1.096635e-05	2.270269e-06	-8.065237e-07	-1.843708e-06	
2.236582	-1.141681e-05	8.057418e-07	1.012243e-06	-5.681553e-06	
2.237583	-1.195017e-05	1.451027e-06	-2.185471e-06	-7.486811e-06	
2.238584	-8.332465e-06	2.902993e-06	-4.835644e-06	-4.896065e-06	
2.239585	-5.247346e-06	1.477497e-06	-2.498786e-06	-2.710455e-06	
2.240585	-5.894063e-06	3.935040e-06	2.784088e-07	-1.545641e-06	
2.241586	-5.148271e-06	1.185556e-05	2.905414e-06	2.047755e-06	
2.242587	-2.123530e-06	1.050686e-05	4.156330e-06	3.289189e-06	
2.243588	2.829526e-07	-1.280315e-06	1.884669e-06	2.335238e-06	
2.244589	2.680560e-06	-7.020904e-06	-3.795220e-07	3.408340e-06	
2.245590	5.475109e-06	-3.571496e-06	1.160755e-06	1.604906e-06	
2.246591	7.146762e-06	4.095994e-06	2.719119e-06	-3.475040e-07	
2.247592	1.006724e-05	5.951525e-06	3.462005e-06	4.176391e-06	
2.248593	1.460044e-05	-4.722087e-06	5.368005e-06	4.575200e-06	
2.249594	1.414563e-05	-9.297624e-06	3.926174e-06	-2.087954e-06	
2.250595	1.234463e-05	-4.780937e-06	1.316010e-06	-3.141430e-06	
2.251596	1.773633e-05	-7.339337e-06	1.467826e-06	-4.897332e-07	
2.252597	2.385232e-05	-8.897209e-06	2.196670e-06	-6.467932e-07	
2.253598	2.226446e-05	-6.642226e-06	3.295516e-06	1.794611e-06	
2.254599	1.036960e-05	-7.919619e-06	2.944273e-06	3.229270e-06	
2.255600	-2.946897e-06	-6.967377e-06	1.772949e-06	-9.659762e-07	
2.256601	-4.706524e-06	-5.221592e-06	1.608144e-06	-1.139898e-06	
2.257602	-3.025368e-06	-3.263811e-06	1.367899e-06	2.093451e-06	
2.258602	-1.186891e-06	1.590135e-06	3.087303e-06	2.482219e-06	
2.259603	4.302918e-06	2.200172e-06	5.006664e-06	2.904227e-06	
2.260604	7.190726e-06	8.035960e-07	3.848149e-06	1.703890e-06	
2.261605	1.119479e-05	2.467378e-06	2.380737e-06	-8.668091e-07	
2.262606	1.322673e-05	5.119063e-07	1.788987e-06	-1.065627e-06	
2.263607	1.041568e-05	-4.919573e-06	1.211567e-06	-2.395004e-06	
2.264608	8.992452e-06	-7.552776e-06	1.940758e-07	-2.852360e-06	
2.265609	4.558513e-06	-1.425001e-05	-2.015410e-06	-2.094583e-06	
2.266610	4.298693e-07	-2.534943e-05	-1.693935e-06	-4.191177e-06	
2.267611	-1.552679e-06	-2.150619e-05	1.102965e-06	-8.031028e-07	
2.268612	-2.781301e-06	-2.117559e-06	-1.420207e-06	3.915116e-06	
2.269613	9.138993e-07	2.103619e-05	-5.084226e-06	1.167994e-06	
2.270614	2.999439e-07	4.557164e-05	-4.246993e-06	9.552220e-07	
2.271615	-6.690511e-06	4.769281e-05	-6.418024e-06	2.186919e-06	
2.272616	-1.315757e-05	1.965710e-05	-1.095078e-05	-2.022535e-07	
2.273617	-1.648352e-05	2.678085e-06	-1.271781e-05	-6.823732e-07	
2.274618	-1.265699e-05	6.718605e-06	-1.242556e-05	-7.309827e-07	
2.275619	-9.651037e-06	6.023120e-06	-1.248331e-05	-3.172933e-06	
2.276619	-1.285173e-05	1.389629e-06	-1.752600e-05	-3.359496e-06	
2.277620	-1.330887e-05	-1.178295e-06	-2.321624e-05	-3.277872e-07	
2.278621	-1.055026e-05	-3.787197e-06	-2.347115e-05	-2.020736e-08	
2.279622	-1.082455e-05	-4.730424e-06	-2.302259e-05	1.189510e-06	
2.280623	-1.205863e-05	-6.944273e-06	-2.412934e-05	3.587710e-06	
2.281624	-1.020612e-05	-8.559270e-06	-2.720758e-05	3.718595e-07	
2.282625	-7.934712e-06	-9.366684e-06	-3.110600e-05	1.902496e-06	
2.283626	-5.729458e-06	-1.510894e-05	-2.465242e-05	5.699517e-06	
2.284627	-2.113641e-06	-1.857021e-05	-6.772763e-06	3.781082e-07	
2.285628	-4.244682e-07	-1.296634e-05	1.231564e-05	-1.636018e-06	
2.286629	-1.238763e-07	-8.074824e-06	3.178642e-05	1.568744e-06	
2.287630	2.948615e-06	-7.746282e-06	4.913421e-05	9.845902e-07	
2.288631	4.256479e-06	2.249074e-07	5.916006e-05	-1.175468e-06	
2.289632	-4.650627e-07	1.050048e-05	6.237740e-05	-3.910845e-06	
2.290633	2.670321e-07	1.889188e-06	5.880521e-05	-5.361435e-06	
2.291634	6.718458e-06	-1.250377e-05	5.389041e-05	-4.257394e-06	
2.292635	6.167677e-06	-8.244807e-06	4.991159e-05	-3.761303e-06	
2.293636	5.636203e-06	-6.050000e-06	4.031525e-05	-1.356806e-06	
2.294636	7.354395e-06	-7.264682e-06	2.948443e-05	1.564890e-06	
2.295637	7.105787e-06	2.184144e-05	2.071327e-05	-1.063207e-07	
2.296638	1.214628e-05	4.407997e-05	9.994843e-06	-9.346282e-08	
2.297639	1.446153e-05	2.708859e-05	2.086185e-07	8.734071e-07	
2.298640	4.631878e-06	1.826669e-05	-1.180079e-05	-8.246037e-07	
2.299641	-6.451923e-06	2.479323e-05	-2.345012e-05	1.844846e-06	
2.300642	-7.665299e-06	2.327519e-05	-2.592492e-05	3.452770e-06	
2.301643	-3.091199e-06	1.455545e-05	-2.935737e-05	6.472294e-07	
2.302644	-2.062425e-06	-4.259963e-06	-3.517815e-05	8.808341e-07	
2.303645	-1.523056e-06	-2.238029e-05	-3.278964e-05	2.968578e-06	
2.304646	6.526776e-08	-3.221091e-05	-2.880211e-05	5.074945e-06	
2.305647	-3.026639e-06	-3.331814e-05	-2.977959e-05	3.135272e-06	
2.306648	-4.371509e-06	-2.457345e-05	-3.042420e-05	-2.478649e-06	
2.307649	-3.987502e-07	-2.064535e-05	-2.778035e-05	-2.313157e-06	
2.308650	1.253163e-06	-1.466001e-05	-2.418710e-05	-3.414844e-07	
2.309651	3.056313e-06	-6.050685e-06	-2.238855e-05	-2.822914e-06	
2.310652	4.125852e-06	-1.200965e-05	-2.105458e-05	-2.060189e-06	
2.311653	1.844068e-06	-1.361522e-05	-1.605874e-05	1.807829e-06	
2.312653	4.885340e-06	-3.304567e-06	-9.220164e-06	1.413098e-07	
2.313654	5.513054e-06	-3.500794e-06	-4.907244e-06	-1.403533e-06	
2.314655	4.831914e-07	-1.777845e-06	-1.349037e-06	1.950092e-06	
2.315656	1.497694e-06	3.080313e-05	2.099340e-06	2.081552e-06	
2.316657	6.763687e-06	5.224173e-05	5.260685e-06	-5.914079e-08	
2.317658	1.476317e-05	1.973016e-05	8.520568e-06	1.204323e-06	
2.318659	1.781435e-05	-9.985037e-06	9.261597e-06	7.984929e-07	
2.319660	1.441859e-05	-1.006322e-05	1.188719e-05	-2.546148e-06	
2.320661	1.322625e-05	-1.277372e-05	1.441159e-05	-2.060590e-06	
2.321662	5.422821e-06	-1.442150e-05	9.387592e-06	4.186879e-07	
2.322663	-3.898578e-06	-1.241653e-05	7.362639e-06	3.511022e-07	
2.323664	-8.405080e-06	-1.281239e-05	1.008734e-05	-3.907928e-07	
2.324665	-1.490794e-05	-3.069572e-06	9.341355e-06	-2.010937e-06	
2.325666	-1.701213e-05	1.964772e-05	8.895969e-06	-2.111560e-06	
2.326667	-1.811263e-05	2.870448e-05	7.334535e-06	1.373820e-06	
2.327668	-1.809044e-05	2.607238e-05	7.551920e-06	9.494847e-07	
2.328669	-9.281341e-06	2.499471e-05	1.251487e-05	2.663270e-07	
2.329669	-7.127472e-06	-4.136441e-06	1.036817e-05	3.608077e-06	
2.330670	-1.279008e-05	-2.339369e-05	5.605799e-06	3.624319e-07	
2.331671	-8.519719e-06	7.914395e-06	6.541477e-06	-3.404317e-06	
2.332672	-4.295747e-07	1.553428e-05	5.975119e-06	-1.279968e-06	
2.333673	3.481149e-07	-2.714675e-05	5.131191e-06	-8.409200e-07	
2.334674	-2.003178e-06	-4.645098e-05	5.392487e-06	7.822395e-07	
2.335675	-2.261305e-06	-8.424744e-06	2.357785e-06	9.734134e-07	
2.336676	5.325938e-07	3.584224e-05	-1.616770e-06	-4.211417e-06	
2.337677	2.704545e-06	4.942752e-05	-2.301279e-06	-4.116930e-06	
2.338678	3.439610e-06	4.865127e-05	1.094925e-06	1.338593e-06	
2.339679	5.269662e-06	2.385348e-05	2.783229e-06	2.932618e-06	
2.340680	5.815148e-06	-1.341355e-05	-1.097879e-06	2.030081e-06	
2.341681	4.593196e-06	-1.589704e-05	-3.018399e-06	-8.081956e-07	
2.342682	1.338458e-06	-2.234409e-05	-2.411803e-06	-3.575862e-06	
2.343683	-2.157312e-06	-6.519761e-05	-5.276778e-06	-6.683599e-07	
2.344684	4.512127e-06	-8.690909e-05	-6.399722e-06	-9.878729e-08	
2.345685	1.367471e-05	-6.440731e-05	-4.902969e-06	-2.024703e-06	
2.346686	1.168980e-05	1.672499e-06	-4.429329e-06	1.583450e-06	
2.347686	1.020973e-05	8.067100e-05	-2.829267e-06	7.126326e-07	
2.348687	9.755306e-06	8.107968e-05	-2.233858e-06	-5.604054e-06	
2.349688	3.075345e-06	4.583176e-05	-3.356706e-06	-4.671193e-06	
2.350689	-2.738372e-06	5.367624e-05	-3.840685e-06	2.340045e-07	
2.351690	-8.627992e-06	3.537951e-05	-2.367171e-06	9.796337e-07	
2.352691	-9.436178e-06	-6.319685e-06	3.281582e-07	1.053319e-06	
2.353692	-1.757095e-06	-4.136528e-05	1.314283e-06	4.425113e-06	
2.354693	2.911860e-06	-7.159877e-05	2.780458e-06	6.129267e-06	
2.355694	4.166843e-06	-4.194590e-05	2.576126e-06	5.212034e-06	
2.356695	2.591805e-06	-1.705280e-05	-9.667600e-07	6.089447e-06	
2.357696	4.610083e-07	-4.176817e-05	-1.031583e-06	6.005455e-06	
2.358697	3.810848e-06	-4.202978e-05	-1.280554e-06	5.128753e-06	
2.359698	4.399979e-06	-3.331628e-06	-5.171576e-06	5.214575e-06	
2.360699	2.262443e-07	3.670014e-05	-4.462094e-06	4.865680e-06	
2.361700	-3.035857e-06	4.140029e-06	-7.151044e-07	5.022635e-06	
2.362701	-3.895926e-06	-5.613881e-05	-1.878958e-06	1.724219e-06	
2.363702	-2.191599e-06	-4.648780e-05	-2.913772e-06	-2.487740e-06	
2.364703	-3.950678e-06	3.305703e-06	1.687033e-07	-1.460654e-06	
2.365703	-3.672197e-06	6.365528e-05	3.246870e-07	-9.449795e-07	
2.366704	-7.677850e-08	6.009194e-05	-6.069696e-07	-5.216124e-06	
2.367705	-5.978618e-06	9.885359e-07	4.291764e-07	-1.070842e-05	
2.368706	-9.424021e-06	3.212079e-06	-1.162673e-06	-9.974434e-06	
2.369707	-1.620754e-06	1.188621e-05	-1.174383e-06	-5.002699e-06	
2.370708	4.451306e-06	2.623619e-06	7.528557e-07	-3.186275e-06	
2.371709	5.448865e-06	3.124799e-05	8.720393e-07	-2.283839e-06	
2.372710	3.993500e-06	4.341623e-05	2.329099e-06	-1.298223e-06	
2.373711	2.905678e-06	4.884827e-06	2.606613e-06	-1.451853e-06	
2.374712	-3.688855e-07	-3.559327e-05	2.641839e-06	-2.707829e-06	
2.375713	-6.524486e-06	-2.331674e-05	4.360759e-06	-2.974401e-06	
2.376714	-6.536557e-06	2.111255e-05	3.603546e-06	-2.084764e-06	
2.377715	-3.541759e-06	3.961119e-05	3.013256e-06	-2.825357e-06	
2.378716	-3.232425e-06	2.782318e-05	2.700326e-06	-1.472550e-06	
2.379717	-4.028418e-06	2.721656e-05	1.585401e-06	1.115421e-06	
2.380718	-7.703708e-06	5.559724e-05	8.285284e-07	6.777287e-07	
2.381719	-1.072728e-05	5.174751e-05	-1.260151e-06	-3.253646e-07	
2.382720	-1.207277e-05	3.043426e-06	-1.829334e-06	1.082618e-06	
2.383720	-1.325202e-05	-4.007386e-05	-2.437900e-06	4.264375e-06	
2.384721	-9.826479e-06	-6.300744e-05	-3.512506e-06	4.487173e-06	
2.385722	-5.282744e-06	-5.493759e-05	-1.268190e-06	2.624599e-06	
2.386723	-1.031468e-06	-4.324714e-05	-1.033443e-06	4.160368e-06	
2.387724	2.244213e-06	-3.938568e-05	-2.155076e-06	4.985220e-06	
2.388725	-4.061867e-06	-1.230876e-05	-4.772181e-07	1.197599e-06	
2.389726	-1.168256e-05	1.244113e-05	-1.546936e-07	5.946046e-08	
2.390727	-7.432207e-06	3.564691e-05	-8.564793e-07	2.163611e-06	
2.391728	3.151614e-06	8.372896e-05	1.474363e-06	1.316336e-06	
2.392729	1.264553e-05	9.488152e-05	4.825982e-06	5.235902e-07	
2.393730	1.666171e-05	2.162637e-05	4.525441e-06	1.490666e-06	
2.394731	1.480072e-05	-5.869992e-05	2.824059e-07	1.033935e-06	
2.395732	2.222419e-05	-9.028621e-05	-3.107249e-06	1.236588e-06	
2.396733	3.717601e-05	-1.134800e-04	-2.964121e-06	2.452610e-06	
2.397734	3.324593e-05	-1.151593e-04	-1.341871e-06	-1.196011e-06	
2.398735	1.644325e-05	-8.550030e-05	3.830599e-07	-6.798397e-06	
2.399736	7.543615e-06	-4.545950e-05	-7.134067e-07	-5.649303e-06	
2.400737	2.407565e-06	3.788364e-05	-3.230144e-06	-1.585995e-06	
2.401737	-4.386706e-08	8.744648e-05	-2.807347e-06	-1.467609e-06	
2.402738	5.551228e-07	2.259045e-05	-2.937622e-06	-2.576924e-06	
2.403739	-6.918266e-07	-3.020238e-05	-2.302266e-06	-1.325534e-06	
2.404740	1.069174e-06	2.250740e-05	2.186300e-07	-1.104472e-06	
2.405741	7.854121e-06	7.371479e-05	6.244424e-07	-2.460753e-06	
2.406742	8.707948e-06	2.912210e-05	1.591720e-06	-6.924619e-07	
2.407743	1.956284e-07	-2.114021e-05	1.717205e-06	7.479650e-07	
2.408744	-2.204668e-06	4.980649e-07	-1.082568e-06	7.899670e-08	
2.409745	3.267717e-06	3.652665e-05	-7.944578e-07	1.066522e-06	
2.410746	1.080361e-06	4.904062e-05	2.110985e-06	2.794028e-06	
2.411747	-8.984093e-06	3.429566e-05	4.756974e-07	5.277213e-06	
2.412748	-1.715985e-05	9.501927e-07	-2.441797e-06	4.258730e-06	
2.413749	-1.859397e-05	-1.202361e-05	1.111113e-06	1.430813e-06	
2.414750	-1.717657e-05	7.273563e-06	6.008323e-06	3.318837e-06	
2.415751	-1.793700e-05	2.744330e-05	5.205762e-06	1.808236e-07	
2.416752	-1.613410e-05	1.991017e-05	2.588852e-06	-2.255598e-06	
2.417753	-1.171859e-05	1.108550e-05	2.972142e-06	4.030860e-06	
2.418754	-9.528136e-06	1.883996e-05	4.363674e-06	3.896904e-06	
2.419754	-5.799318e-06	-1.158710e-06	5.000062e-06	1.447828e-06	
2.420755	-2.813916e-06	-4.608324e-05	4.706457e-06	2.643210e-06	
2.421756	-6.659693e-06	-6.039200e-05	2.597936e-06	6.501896e-07	
2.422757	-8.200310e-06	-4.163816e-05	1.962449e-06	-1.542383e-06	
2.423758	-3.831101e-06	-1.048484e-07	1.228741e-06	-3.745059e-06	
2.424759	-2.713373e-06	5.952232e-05	-3.281802e-06	-4.440180e-06	
2.425760	-1.273719e-06	6.902964e-05	-2.910936e-06	-2.832037e-06	
2.426761	2.943133e-06	2.927642e-05	1.194366e-06	-2.079821e-06	
2.427762	1.642184e-06	1.258166e-05	-1.009382e-06	-9.980949e-07	
2.428763	-2.220345e-06	-1.542529e-05	-2.255477e-06	-2.320703e-06	
2.429764	-2.350527e-06	-6.245253e-05	-8.545184e-07	-4.691741e-06	
2.430765	2.301490e-07	-6.593467e-05	-2.087212e-06	-4.407921e-06	
2.431766	4.750152e-06	-3.261064e-05	-7.427719e-07	-1.560462e-06	
2.432767	1.015516e-05	-2.668614e-06	-1.678221e-06	2.452056e-06	
2.433768	1.118205e-05	5.475390e-07	-6.407701e-06	1.007296e-06	
2.434769	6.770116e-06	-7.843904e-06	-5.233646e-06	-1.765651e-06	
2.435770	3.880844e-06	-9.273518e-06	-2.338820e-06	-7.247543e-08	
2.436771	1.647077e-06	-5.813427e-06	-2.800482e-06	3.680083e-07	
2.437771	-1.356788e-06	2.283913e-06	-6.674405e-06	5.345650e-07	
2.438772	-1.068367e-07	-1.945307e-06	-1.181853e-05	1.394927e-06	
2.439773	2.776976e-06	-7.328739e-06	-1.002910e-05	8.960868e-07	
2.440774	3.011908e-06	8.318803e-06	-5.610597e-06	-3.442181e-07	
2.441775	1.113988e-06	3.045181e-05	-4.305572e-06	-1.430761e-06	
2.442776	2.564363e-06	5.140313e-05	-1.807535e-06	-2.402998e-07	
2.443777	7.031560e-06	5.933186e-05	-5.809209e-07	-2.532951e-08	
2.444778	5.255726e-06	4.188360e-05	-9.260089e-07	6.592447e-07	
2.445779	2.237060e-06	-9.446555e-07	-1.669080e-06	3.037819e-06	
2.446780	4.348270e-06	-5.151909e-05	-3.115971e-06	7.950270e-07	
2.447781	3.311193e-06	-6.999491e-05	1.853542e-08	8.746941e-07	
2.448782	3.646228e-08	-6.445367e-05	3.285185e-06	2.413792e-06	
2.449783	1.533680e-06	-3.696790e-05	3.588506e-06	-1.666551e-06	
2.450784	1.349125e-06	1.037595e-05	3.746738e-06	-1.211913e-06	
2.451785	-2.819565e-06	1.567996e-05	6.841434e-07	1.675671e-06	
2.452786	-3.728794e-06	7.058904e-06	-1.408421e-06	1.512740e-06	
2.453787	-3.053358e-06	2.357242e-05	-1.502975e-06	1.825178e-06	
2.454788	-2.021829e-06	1.774360e-05	5.656885e-07	3.529548e-07	
2.455788	-2.114118e-06	-6.088709e-06	7.815707e-06	-2.326880e-07	
2.456789	-4.664287e-06	-2.885064e-05	1.111642e-05	1.391205e-06	
2.457790	-9.323452e-07	-3.829490e-05	1.059411e-05	2.677845e-06	
2.458791	1.991985e-06	-4.299714e-07	1.170702e-05	2.587573e-06	
2.459792	-3.120834e-06	5.470049e-05	1.283339e-05	1.195457e-07	
2.460793	-4.026738e-06	7.262628e-05	1.505279e-05	-3.777681e-07	
2.461794	-3.228279e-06	6.798744e-05	1.733506e-05	1.196628e-06	
2.462795	-4.606577e-06	4.872557e-05	1.832662e-05	1.235524e-06	
2.463796	-8.862490e-07	1.312886e-05	1.328728e-05	1.166194e-06	
2.464797	4.268912e-06	-9.382018e-07	7.806335e-06	-1.772925e-06	
2.465798	5.441156e-06	-2.815972e-05	9.877488e-06	-6.453984e-06	
2.466799	4.519865e-06	-8.269508e-05	5.589203e-06	-3.226214e-06	
2.467800	4.997462e-06	-7.660750e-05	-2.881659e-06	2.259350e-06	
2.468801	4.476738e-06	-3.094087e-05	-6.439770e-06	1.205548e-06	
2.469802	2.368621e-06	-1.579467e-05	-9.781991e-06	-6.641016e-07	
2.470803	2.360675e-06	1.999269e-06	-8.991280e-06	-2.247834e-06	
2.471804	1.662806e-06	3.097008e-05	-1.018528e-05	-2.822252e-06	
2.472805	2.026437e-06	2.727879e-05	-1.503510e-05	-1.865912e-06	
2.473805	1.137042e-06	3.303635e-06	-1.371524e-05	-3.224706e-06	
2.474806	-1.566416e-06	-6.979997e-06	-1.268485e-05	-1.970243e-06	
2.475807	2.015287e-06	-6.873200e-06	-1.304751e-05	-1.343904e-06	
2.476808	3.381973e-06	3.528690e-06	-1.342219e-05	-3.528429e-06	
2.477809	4.594753e-06	1.902813e-05	-1.574912e-05	-2.546106e-06	
2.478810	9.046845e-06	1.767780e-05	-1.255626e-05	-5.215008e-06	
2.479811	6.010174e-06	1.301425e-06	-9.514367e-06	-6.560072e-06	
2.480812	3.587375e-06	-1.583288e-06	-8.839039e-06	-2.427080e-06	
2.481813	-5.455302e-07	2.029498e-05	-3.750286e-06	-1.591925e-07	
2.482814	-7.923718e-06	2.445993e-05	-3.805839e-06	6.160419e-06	
2.483815	-6.938904e-06	1.001174e-06	-5.168271e-06	8.717145e-06	
2.484816	-5.972064e-06	-8.055789e-06	-5.579003e-07	6.180023e-06	
2.485817	-6.048113e-06	-9.256203e-06	1.563416e-06	1.167781e-05	
2.486818	-4.647872e-06	-1.592526e-05	2.006647e-06	8.608895e-06	
2.487819	-7.383316e-06	-2.242899e-05	3.230778e-06	1.279203e-06	
2.488820	-1.036465e-05	-2.536781e-05	6.760686e-06	5.374408e-06	
2.489821	-1.109863e-05	-1.097896e-05	9.116492e-06	4.540982e-06	
2.490822	-1.083941e-05	1.666219e-06	7.135471e-06	3.617231e-06	
2.491822	-1.013494e-05	-3.361970e-06	7.523255e-06	-4.893227e-06	
2.492823	-8.714545e-06	-5.482682e-06	6.660449e-06	-2.099983e-05	
2.493824	-5.433871e-06	-1.399767e-06	4.633090e-06	-8.311080e-06	
2.494825	-2.429133e-06	2.125062e-06	4.778144e-06	7.006084e-06	
2.495826	-1.358553e-06	6.875532e-06	3.518895e-06	8.094087e-06	
2.496827	3.377943e-06	1.261331e-05	2.869805e-06	1.935813e-05	
2.497828	7.179102e-06	1.403434e-05	9.309721e-07	1.921794e-05	
2.498829	4.783555e-06	9.510616e-06	-7.861199e-07	6.643081e-06	
2.499830	6.135467e-06	6.637525e-06	1.911726e-06	-1.727593e-06	
2.500831	6.796854e-06	4.348344e-06	3.836899e-06	-1.710656e-05	
2.501832	8.113811e-06	-8.842075e-07	3.853894e-06	-2.032790e-05	
2.502833	1.090309e-05	-1.605508e-07	4.142014e-06	6.463919e-07	
2.503834	3.398322e-06	1.059669e-06	4.315753e-06	4.333489e-06	
2.504835	5.386695e-07	-5.825660e-06	3.777337e-06	-1.140014e-05	
2.505836	1.786884e-06	-4.679512e-06	1.040134e-06	-5.964181e-06	
2.506837	-1.838118e-06	8.360354e-07	5.996909e-07	9.375913e-06	
2.507838	6.787191e-07	5.365579e-07	3.419114e-06	-1.078519e-06	
2.508839	3.655232e-06	6.054336e-06	-3.009785e-08	-3.501631e-05	
2.509839	2.920203e-06	5.530989e-06	-2.903952e-06	-4.546427e-05	
2.510840	-6.339008e-08	-1.210867e-06	6.783480e-07	-1.406856e-05	
2.511841	-1.609170e-06	3.267999e-06	-1.540451e-06	1.041160e-05	
2.512842	3.138783e-06	7.345253e-06	-3.611716e-06	1.335808e-05	
2.513843	5.946281e-06	6.696395e-06	-1.273702e-06	1.562194e-05	
2.514844	4.165207e-06	4.605384e-06	-3.629468e-06	2.293037e-05	
2.515845	9.865390e-07	1.695717e-06	-4.243137e-06	2.790912e-05	
2.516846	-3.764303e-07	1.142110e-07	-3.488053e-06	2.161256e-05	
2.517847	1.364464e-06	-1.350260e-05	-4.539196e-06	1.901043e-05	
2.518848	2.443559e-06	-2.802993e-05	-1.405880e-06	5.269956e-06	
2.519849	2.359427e-07	-2.319211e-05	-7.585077e-09	-2.379383e-05	
2.520850	-1.806867e-06	-2.015604e-05	4.714089e-08	-2.253095e-05	
2.521851	1.626065e-07	-1.785079e-05	2.542430e-06	-2.437175e-06	
2.522852	-1.234712e-06	4.485270e-06	2.297120e-06	3.213396e-06	
2.523853	-7.104248e-06	1.828538e-05	3.118656e-06	8.301544e-07	
2.524854	-1.038102e-05	7.635388e-06	1.673125e-06	-2.522094e-06	
2.525855	-1.104981e-05	1.387068e-06	-3.269510e-06	-1.029340e-06	
2.526856	-1.082857e-05	5.022088e-06	2.774219e-07	7.588545e-06	
2.527856	-1.002701e-05	8.012357e-06	2.670592e-06	7.775275e-06	
2.528857	-6.830006e-06	1.861983e-05	-1.625925e-06	-1.644525e-06	
2.529858	-1.121893e-06	2.367119e-05	-1.588011e-06	-6.037429e-06	
2.530859	3.350677e-06	7.698610e-06	-2.840963e-06	-1.361746e-05	
2.531860	2.748321e-06	-6.060855e-06	-3.450835e-06	-1.811046e-05	
2.532861	2.258628e-06	-2.051548e-05	1.536130e-06	-9.701646e-06	
2.533862	6.365198e-06	-1.707734e-05	2.844931e-06	-7.057965e-06	
2.534863	9.520999e-06	1.702820e-05	2.451304e-06	-9.415096e-06	
2.535864	9.827896e-06	1.307933e-06	1.648549e-06	-5.768763e-06	
2.536865	4.212563e-06	-3.057016e-05	-2.197169e-06	4.103180e-06	
2.537866	-2.007286e-07	-6.432673e-06	-3.221747e-06	6.371475e-06	
2.538867	3.672294e-06	3.878802e-06	-5.535910e-07	-1.275663e-06	
2.539868	4.695449e-06	-9.504869e-06	-7.382936e-07	3.884483e-06	
2.540869	4.094195e-06	-4.110979e-06	-3.707183e-06	1.246742e-05	
2.541870	3.437254e-06	6.580742e-06	-2.372334e-06	1.065356e-05	
2.542871	4.837428e-07	1.040499e-05	-1.120296e-06	5.478518e-06	
2.543872	7.331667e-07	1.311526e-05	-9.520819e-07	-2.219298e-06	
2.544873	2.428904e-06	2.594513e-05	1.985433e-06	4.034656e-06	
2.545873	2.835783e-06	4.225860e-05	7.156780e-07	2.587015e-05	
2.546874	2.257491e-06	4.471450e-05	-1.183817e-07	3.356009e-05	
2.547875	4.142829e-06	2.253824e-05	8.771004e-07	2.952686e-05	
2.548876	2.887083e-06	-9.299638e-06	-7.647530e-07	3.046597e-05	
2.549877	-1.891487e-06	-1.125274e-05	-1.696880e-08	2.122260e-05	
2.550878	2.275623e-06	9.424157e-06	3.557693e-07	6.439060e-06	
2.551879	1.678659e-06	-8.978582e-06	1.681958e-06	-6.443871e-09	
2.552880	-6.894612e-06	-5.417085e-05	2.504379e-06	-7.301663e-06	
2.553881	-1.420660e-06	-4.636893e-05	-4.501655e-08	-4.271635e-07	
2.554882	4.297207e-06	-1.625969e-05	1.600537e-06	-5.191930e-06	
2.555883	-7.122178e-06	-2.613280e-05	1.974522e-06	-4.681746e-05	
2.556884	-1.504831e-05	-4.096826e-05	6.308912e-07	-6.110386e-05	
2.557885	-1.035961e-05	-2.738800e-05	1.255982e-06	-5.797903e-05	
2.558886	-6.183953e-06	3.964838e-06	-1.262779e-06	-6.875198e-05	
2.559887	-7.007453e-06	1.999012e-05	-2.870668e-06	-4.351599e-05	
2.560888	-1.107385e-05	1.513637e-05	-3.230642e-06	1.383562e-06	
2.561889	-1.106702e-05	4.968995e-06	-2.587886e-06	1.539704e-05	
2.562890	-5.300285e-06	-1.604240e-05	-9.307280e-07	3.810213e-06	
2.563890	-4.907137e-06	-1.451783e-05	-3.407941e-07	1.421428e-06	
2.564891	-4.105160e-06	1.537510e-05	5.179305e-06	1.363110e-05	
2.565892	-1.797442e-07	2.057305e-05	7.409377e-06	1.797446e-05	
2.566893	-4.765478e-06	1.898190e-05	2.302733e-06	2.731373e-05	
2.567894	-5.000513e-06	3.611760e-05	1.879514e-06	4.010467e-05	
2.568895	1.804976e-06	3.206129e-05	1.721629e-06	3.834139e-05	
2.569896	5.120278e-06	9.087619e-06	-2.558049e-06	3.333073e-05	
2.570897	1.031916e-05	1.311457e-06	-4.280715e-06	2.860091e-05	
2.571898	9.655221e-06	-2.120080e-06	-2.812843e-06	1.415322e-05	
2.572899	6.476210e-06	-5.988583e-06	-3.564180e-06	-1.089346e-05	
2.573900	1.072199e-05	6.485439e-07	-5.005324e-06	-2.944499e-05	
2.574901	9.687249e-06	5.121559e-06	-2.229374e-06	-3.169004e-05	
2.575902	5.314061e-06	8.045046e-06	-4.748781e-07	-2.834210e-05	
2.576903	6.861192e-06	1.650665e-05	1.806431e-07	-2.497324e-05	
2.577904	9.449651e-06	1.546107e-05	-2.781427e-07	-1.130402e-05	
2.578905	1.092836e-05	6.318380e-06	-1.207411e-06	1.333795e-05	
2.579906	1.087410e-05	-1.706943e-06	4.866330e-06	2.563869e-05	
2.580907	9.120293e-06	-1.948498e-05	6.441946e-06	2.404305e-05	
2.581907	1.288695e-05	-3.911722e-05	3.670661e-06	2.630424e-05	
2.582908	1.624415e-05	-4.643972e-05	5.944336e-06	2.783009e-05	
2.583909	1.125250e-05	-3.898749e-05	2.395086e-06	2.450603e-05	
2.584910	9.090901e-06	-9.525065e-06	7.946643e-07	1.886204e-05	
2.585911	6.781261e-06	1.402512e-05	2.615153e-06	8.620187e-06	
2.586912	2.146673e-06	1.261010e-05	-3.158308e-06	2.144551e-06	
2.587913	-4.546861e-08	4.264914e-06	-4.998707e-06	-5.674859e-06	
2.588914	-5.902373e-06	-1.460888e-05	-3.491993e-06	-2.388014e-05	
2.589915	-9.917823e-06	-3.309816e-05	-4.179101e-06	-3.269824e-05	
2.590916	-1.075063e-05	-1.925086e-05	-2.295882e-06	-2.994365e-05	
2.591917	-1.079481e-05	1.002594e-05	-1.220368e-06	-2.839144e-05	
2.592918	-1.111877e-05	1.708415e-05	-3.908654e-06	-2.468081e-05	
2.593919	-1.384165e-05	2.759623e-05	-3.502036e-06	-1.967879e-05	
2.594920	-1.603057e-05	5.155946e-05	2.438609e-06	-1.437649e-05	
2.595921	-2.380749e-05	4.141267e-05	3.001300e-06	-5.101563e-06	
2.596922	-3.470957e-05	2.519217e-06	3.254096e-07	2.309845e-06	
2.597923	-4.166136e-05	-1.556184e-05	1.526705e-06	1.739863e-06	
2.598924	-4.115699e-05	3.034326e-05	2.818085e-06	1.688962e-06	
2.599924	-3.563725e-05	9.669553e-05	3.786900e-06	4.663475e-06	
2.600925	-3.300304e-05	7.574936e-05	2.004254e-06	7.042783e-06	
2.601926	-2.242538e-05	-3.428184e-06	-1.277514e-06	8.364004e-06	
2.602927	-3.218204e-06	-4.445524e-05	-3.655020e-06	2.895819e-06	
2.603928	1.576191e-05	-6.573944e-05	-4.251849e-06	-8.588605e-07	
2.604929	3.002661e-05	-8.172364e-05	2.303758e-06	-4.570414e-07	
2.605930	2.963294e-05	-5.978713e-05	6.060430e-06	-2.155805e-06	
2.606931	2.468226e-05	-4.968179e-05	1.429402e-06	1.454896e-06	
2.607932	1.999307e-05	-4.851141e-05	4.837021e-07	1.343266e-06	
2.608933	1.337468e-05	-6.030234e-06	-1.399844e-07	-5.219970e-07	
2.609934	1.803420e-05	1.701813e-05	-1.713333e-06	8.558434e-06	
2.610935	2.298088e-05	1.514447e-05	4.630853e-07	1.161996e-05	
2.611936	2.013355e-05	1.620711e-05	-7.811890e-07	9.474977e-06	
2.612937	2.084688e-05	5.660158e-06	4.817327e-07	1.278479e-05	
2.613938	1.971992e-05	4.318207e-06	4.041932e-06	1.032070e-05	
2.614939	1.858894e-05	6.744164e-07	8.664627e-07	7.805607e-06	
2.615940	2.232745e-05	4.266357e-06	-5.800835e-07	1.172838e-05	
2.616941	2.126118e-05	1.799019e-05	3.106103e-08	1.467468e-05	
2.617941	1.433923e-05	1.093546e-05	-2.202357e-06	1.989312e-05	
2.618942	1.042608e-05	2.106349e-05	-3.506932e-06	2.126061e-05	
2.619943	8.160371e-06	3.864559e-05	-1.133794e-06	1.345393e-05	
2.620944	1.045349e-06	3.610302e-05	-1.747223e-06	8.861569e-06	
2.621945	-3.305684e-06	3.023301e-05	-5.905979e-06	2.558280e-06	
2.622946	-4.735433e-06	8.575010e-06	-9.203941e-07	-1.440779e-05	
2.623947	-8.215689e-06	-9.547610e-06	1.314898e-06	-2.916865e-05	
2.624948	-7.885804e-06	-1.005370e-05	-4.766183e-06	-3.022729e-05	
2.625949	-8.719867e-06	-1.309444e-05	-3.889834e-06	-2.122777e-05	
2.626950	-1.067828e-05	-2.073737e-05	-2.778953e-06	-2.019882e-05	
2.627951	-9.381688e-06	-2.906389e-05	-2.269092e-06	-2.859954e-05	
2.628952	-1.212497e-05	-2.379600e-05	1.261123e-06	-2.070410e-05	
2.629953	-1.239117e-05	-1.063712e-05	1.699002e-06	-2.564987e-06	
2.630954	-7.276158e-06	-1.278589e-05	2.563672e-06	1.791295e-06	
2.631955	-6.516735e-06	-9.988373e-06	3.881377e-06	1.708233e-06	
2.632956	-9.004747e-06	1.224605e-06	4.260879e-06	6.544625e-06	
2.633957	-1.275719e-05	-1.427517e-05	4.929077e-06	9.777833e-06	
2.634958	-9.350060e-06	-2.048079e-05	3.373710e-06	9.251068e-06	
2.635958	-1.619055e-06	-1.019677e-05	9.609406e-07	6.449175e-06	
2.636959	-4.858321e-06	-2.735590e-05	-1.587037e-06	1.376487e-06	
2.637960	-4.950781e-06	-1.712135e-05	-4.006469e-06	-2.927025e-06	
2.638961	-1.512920e-06	2.243535e-05	-2.696558e-06	-8.572740e-08	
2.639962	-5.696386e-06	3.596095e-05	3.131522e-07	1.862339e-06	
2.640963	-3.257174e-06	4.927068e-05	1.630359e-06	-8.794011e-07	
2.641964	-1.896676e-07	5.570392e-05	2.225998e-06	3.600919e-06	
2.642965	-3.242030e-06	3.367559e-05	1.830897e-06	5.503284e-06	
2.643966	-7.618995e-06	-4.718233e-06	1.280229e-06	-2.201960e-06	
2.644967	-1.569001e-05	-4.101574e-05	2.020592e-07	-3.000889e-06	
2.645968	-1.610657e-05	-3.891955e-05	-1.880291e-06	9.586915e-07	
2.646969	-1.122779e-05	-2.530556e-05	-1.995225e-07	3.072235e-08	
2.647970	-1.159240e-05	-1.784996e-05	1.730076e-06	-3.150406e-07	
2.648971	-1.035491e-05	2.951081e-05	1.329096e-06	2.883385e-06	
2.649972	-5.393656e-06	7.956046e-05	3.882777e-06	7.706470e-06	
2.650973	6.454689e-07	1.023636e-04	3.141064e-06	1.078546e-05	
2.651974	5.532369e-06	1.095961e-04	-2.656308e-07	1.148858e-05	
2.652975	5.010041e-06	5.490305e-05	4.529280e-07	1.133183e-05	
2.653975	2.268635e-06	-2.436822e-05	-3.690933e-07	6.978070e-06	
2.654976	6.527208e-06	-5.067148e-05	-7.203848e-07	1.254854e-07	
2.655977	1.383939e-05	-6.316986e-05	-3.658788e-07	-3.873289e-06	
2.656978	1.758406e-05	-9.497514e-05	-4.143546e-06	-1.995969e-06	
2.657979	2.001778e-05	-1.135188e-04	-5.335381e-06	2.029656e-06	
2.658980	1.968500e-05	-8.905020e-05	-3.661440e-06	-8.175735e-07	
2.659981	1.647019e-05	-4.248912e-05	-2.160106e-06	-6.108613e-06	
2.660982	1.371729e-05	-2.077792e-05	1.270099e-06	-7.317843e-06	
2.661983	1.353262e-05	-9.234873e-06	2.267129e-06	-4.871746e-06	
2.662984	1.034484e-05	1.417689e-05	2.656925e-06	-2.102159e-06	
2.663985	3.926936e-06	6.008090e-05	6.241140e-06	-3.452576e-06	
2.664986	4.694740e-06	1.036141e-04	3.650756e-06	-2.075042e-06	
2.665987	5.388123e-06	6.884951e-05	-2.064176e-06	-8.605198e-07	
2.666988	-1.690616e-06	5.696716e-06	-1.592441e-06	-7.526574e-06	
2.667989	-5.030333e-06	-8.766503e-06	-3.246954e-06	-9.672669e-06	
2.668990	-1.135241e-06	-1.768106e-05	-3.834814e-06	-6.270966e-06	
2.669991	-1.700140e-06	-5.379720e-05	5.046666e-07	-5.453245e-06	
2.670992	-7.224698e-06	-7.711624e-05	-3.909191e-06	-2.127330e-06	
2.671992	-6.151621e-06	-4.775824e-05	-6.736015e-06	-1.292080e-06	
2.672993	-1.700033e-06	-1.723487e-05	-2.450152e-07	-1.959707e-06	
2.673994	5.219372e-07	5.165910e-06	-1.374746e-06	6.818033e-06	
2.674995	2.604265e-06	6.353500e-05	-3.322040e-06	6.305053e-06	
2.675996	1.065608e-06	6.001331e-05	1.605431e-06	-1.303901e-06	
2.676997	-2.230245e-06	-6.150353e-06	3.850214e-06	3.271227e-06	
2.677998	-1.832813e-06	-2.053364e-05	3.284924e-06	-3.374372e-06	
2.678999	-5.043954e-07	-3.568293e-05	1.796482e-06	-1.102307e-05	
2.680000	-1.263570e-06	-3.927815e-05	1.860968e-06	1.362299e-06	
