X [s]	1 Gast Med [V]	2 T Ant [V]	3 R Fem [V]	4 B Fem [V]	
21.550000	2.560655e-06	1.777019e-05	2.981410e-06	2.406263e-06	
21.551000	2.544324e-06	1.748463e-05	2.982912e-06	2.387740e-06	
21.552001	2.528706e-06	1.721584e-05	2.985091e-06	2.369409e-06	
21.553001	2.513869e-06	1.696467e-05	2.987963e-06	2.351309e-06	
21.554001	2.499883e-06	1.673196e-05	2.991547e-06	2.333479e-06	
21.555002	2.486816e-06	1.651857e-05	2.995860e-06	2.315957e-06	
21.556002	2.474737e-06	1.632535e-05	3.000921e-06	2.298783e-06	
21.557002	2.463714e-06	1.615312e-05	3.006747e-06	2.281994e-06	
21.558003	2.453816e-06	1.600275e-05	3.013355e-06	2.265630e-06	
21.559003	2.445112e-06	1.587508e-05	3.020764e-06	2.249730e-06	
21.560003	2.437670e-06	1.577096e-05	3.028991e-06	2.234331e-06	
21.561004	2.431559e-06	1.569123e-05	3.038054e-06	2.219474e-06	
21.562004	2.426847e-06	1.563674e-05	3.047971e-06	2.205197e-06	
21.563004	2.423604e-06	1.560834e-05	3.058760e-06	2.191538e-06	
21.564005	2.421897e-06	1.560687e-05	3.070437e-06	2.178536e-06	
21.565005	2.421796e-06	1.563318e-05	3.083022e-06	2.166231e-06	
21.566005	2.423369e-06	1.568811e-05	3.096532e-06	2.154660e-06	
21.567006	2.426685e-06	1.577252e-05	3.110984e-06	2.143863e-06	
21.568006	2.431812e-06	1.588724e-05	3.126397e-06	2.133879e-06	
21.569006	2.438820e-06	1.603314e-05	3.142788e-06	2.124746e-06	
21.570007	2.447776e-06	1.621104e-05	3.160175e-06	2.116502e-06	
21.571007	2.458749e-06	1.642180e-05	3.178575e-06	2.109188e-06	
21.572007	2.471808e-06	1.666627e-05	3.198007e-06	2.102841e-06	
21.573007	2.487022e-06	1.694530e-05	3.218487e-06	2.097500e-06	
21.574008	2.504459e-06	1.725972e-05	3.240035e-06	2.093204e-06	
21.575008	2.524184e-06	1.761033e-05	3.262666e-06	2.089991e-06	
21.576008	2.546186e-06	1.799672e-05	3.286356e-06	2.087860e-06	
21.577009	2.570378e-06	1.841730e-05	3.311041e-06	2.086777e-06	
21.578009	2.596668e-06	1.887041e-05	3.336657e-06	2.086705e-06	
21.579009	2.624966e-06	1.935438e-05	3.363138e-06	2.087608e-06	
21.580010	2.655180e-06	1.986758e-05	3.390419e-06	2.089447e-06	
21.581010	2.687220e-06	2.040835e-05	3.418436e-06	2.092187e-06	
21.582010	2.720995e-06	2.097503e-05	3.447122e-06	2.095791e-06	
21.583011	2.756414e-06	2.156598e-05	3.476412e-06	2.100221e-06	
21.584011	2.793385e-06	2.217953e-05	3.506243e-06	2.105441e-06	
21.585011	2.831819e-06	2.281403e-05	3.536547e-06	2.111415e-06	
21.586012	2.871624e-06	2.346784e-05	3.567261e-06	2.118104e-06	
21.587012	2.912710e-06	2.413930e-05	3.598319e-06	2.125474e-06	
21.588012	2.954985e-06	2.482675e-05	3.629656e-06	2.133485e-06	
21.589013	2.998358e-06	2.552854e-05	3.661207e-06	2.142103e-06	
21.590013	3.042739e-06	2.624302e-05	3.692906e-06	2.151290e-06	
21.591013	3.088037e-06	2.696854e-05	3.724689e-06	2.161009e-06	
21.592014	3.134161e-06	2.770343e-05	3.756490e-06	2.171223e-06	
21.593014	3.181020e-06	2.844606e-05	3.788244e-06	2.181896e-06	
21.594014	3.228522e-06	2.919476e-05	3.819887e-06	2.192991e-06	
21.595015	3.276578e-06	2.994788e-05	3.851352e-06	2.204470e-06	
21.596015	3.325096e-06	3.070377e-05	3.882575e-06	2.216297e-06	
21.597015	3.373986e-06	3.146078e-05	3.913490e-06	2.228436e-06	
21.598016	3.423156e-06	3.221725e-05	3.944033e-06	2.240849e-06	
21.599016	3.472515e-06	3.297153e-05	3.974138e-06	2.253500e-06	
21.600016	3.521973e-06	3.372196e-05	4.003740e-06	2.266352e-06	
21.601017	3.571439e-06	3.446690e-05	4.032775e-06	2.279367e-06	
21.602017	3.620822e-06	3.520468e-05	4.061176e-06	2.292510e-06	
21.603017	3.670031e-06	3.593366e-05	4.088878e-06	2.305743e-06	
21.604018	3.718974e-06	3.665219e-05	4.115818e-06	2.319029e-06	
21.605018	3.767562e-06	3.735860e-05	4.141928e-06	2.332332e-06	
21.606018	3.815704e-06	3.805125e-05	4.167145e-06	2.345615e-06	
21.607019	3.863307e-06	3.872848e-05	4.191403e-06	2.358841e-06	
21.608019	3.910282e-06	3.938864e-05	4.214637e-06	2.371973e-06	
21.609019	3.956538e-06	4.003008e-05	4.236782e-06	2.384974e-06	
21.610020	4.001983e-06	4.065114e-05	4.257772e-06	2.397808e-06	
21.611020	4.046527e-06	4.125017e-05	4.277542e-06	2.410437e-06	
21.612020	4.090079e-06	4.182551e-05	4.296028e-06	2.422826e-06	
21.613020	4.132548e-06	4.237552e-05	4.313164e-06	2.434936e-06	
21.614021	4.173843e-06	4.289854e-05	4.328886e-06	2.446732e-06	
21.615021	4.213873e-06	4.339291e-05	4.343127e-06	2.458176e-06	
21.616021	4.252548e-06	4.385699e-05	4.355822e-06	2.469232e-06	
21.617022	4.289776e-06	4.428912e-05	4.366908e-06	2.479862e-06	
21.618022	4.325466e-06	4.468764e-05	4.376317e-06	2.490031e-06	
21.619022	4.359528e-06	4.505091e-05	4.383986e-06	2.499700e-06	
21.620023	4.391871e-06	4.537727e-05	4.389849e-06	2.508834e-06	
21.621023	4.422403e-06	4.566506e-05	4.393841e-06	2.517395e-06	
21.622023	4.451034e-06	4.591264e-05	4.395897e-06	2.525347e-06	
21.623024	4.477674e-06	4.611835e-05	4.395951e-06	2.532652e-06	
21.624024	4.502230e-06	4.628053e-05	4.393939e-06	2.539275e-06	
21.625024	4.524614e-06	4.639761e-05	4.389799e-06	2.545179e-06	
21.626025	4.544775e-06	4.646943e-05	4.383535e-06	2.550362e-06	
21.627025	4.562695e-06	4.649719e-05	4.375214e-06	2.554850e-06	
21.628025	4.578360e-06	4.648217e-05	4.364908e-06	2.558673e-06	
21.629026	4.591754e-06	4.642561e-05	4.352687e-06	2.561858e-06	
21.630026	4.602863e-06	4.632880e-05	4.338622e-06	2.564434e-06	
21.631026	4.611672e-06	4.619298e-05	4.322782e-06	2.566430e-06	
21.632027	4.618165e-06	4.601942e-05	4.305238e-06	2.567873e-06	
21.633027	4.622328e-06	4.580939e-05	4.286060e-06	2.568793e-06	
21.634027	4.624145e-06	4.556414e-05	4.265320e-06	2.569218e-06	
21.635028	4.623602e-06	4.528495e-05	4.243087e-06	2.569176e-06	
21.636028	4.620683e-06	4.497306e-05	4.219432e-06	2.568696e-06	
21.637028	4.615374e-06	4.462975e-05	4.194425e-06	2.567806e-06	
21.638029	4.607659e-06	4.425628e-05	4.168137e-06	2.566535e-06	
21.639029	4.597524e-06	4.385390e-05	4.140638e-06	2.564910e-06	
21.640029	4.584952e-06	4.342389e-05	4.111998e-06	2.562962e-06	
21.641030	4.569931e-06	4.296751e-05	4.082288e-06	2.560717e-06	
21.642030	4.552443e-06	4.248601e-05	4.051579e-06	2.558205e-06	
21.643030	4.532475e-06	4.198066e-05	4.019940e-06	2.555453e-06	
21.644031	4.510011e-06	4.145273e-05	3.987443e-06	2.552491e-06	
21.645031	4.485037e-06	4.090347e-05	3.954157e-06	2.549347e-06	
21.646031	4.457536e-06	4.033416e-05	3.920153e-06	2.546049e-06	
21.647032	4.427495e-06	3.974604e-05	3.885502e-06	2.542626e-06	
21.648032	4.394898e-06	3.914039e-05	3.850273e-06	2.539106e-06	
21.649032	4.359730e-06	3.851846e-05	3.814538e-06	2.535517e-06	
21.650033	4.321977e-06	3.788152e-05	3.778367e-06	2.531889e-06	
21.651033	4.281622e-06	3.723084e-05	3.741829e-06	2.528249e-06	
21.652033	4.238652e-06	3.656767e-05	3.704996e-06	2.524626e-06	
21.653034	4.193050e-06	3.589328e-05	3.667938e-06	2.521048e-06	
21.654034	4.144803e-06	3.520893e-05	3.630726e-06	2.517544e-06	
21.655034	4.093894e-06	3.451588e-05	3.593429e-06	2.514143e-06	
21.656034	4.040310e-06	3.381540e-05	3.556119e-06	2.510872e-06	
21.657035	3.984035e-06	3.310875e-05	3.518865e-06	2.507761e-06	
21.658035	3.925053e-06	3.239718e-05	3.481738e-06	2.504837e-06	
21.659035	3.863351e-06	3.168198e-05	3.444809e-06	2.502129e-06	
21.660036	3.798912e-06	3.096438e-05	3.408147e-06	2.499666e-06	
21.661036	3.731722e-06	3.024567e-05	3.371824e-06	2.497476e-06	
21.662036	3.661766e-06	2.952710e-05	3.335910e-06	2.495587e-06	
21.663037	3.589029e-06	2.880993e-05	3.300474e-06	2.494029e-06	
21.664037	3.513496e-06	2.809543e-05	3.265589e-06	2.492828e-06	
21.665037	3.435151e-06	2.738486e-05	3.231323e-06	2.492015e-06	
21.666038	3.353981e-06	2.667949e-05	3.197748e-06	2.491616e-06	
21.667038	3.269969e-06	2.598056e-05	3.164934e-06	2.491662e-06	
21.668038	3.183100e-06	2.528936e-05	3.132950e-06	2.492179e-06	
21.669039	3.093361e-06	2.460714e-05	3.101869e-06	2.493198e-06	
21.670039	3.000735e-06	2.393516e-05	3.071760e-06	2.494745e-06	
21.671039	2.905207e-06	2.327468e-05	3.042693e-06	2.496850e-06	
21.672040	2.806764e-06	2.262698e-05	3.014739e-06	2.499540e-06	
21.673040	2.705388e-06	2.199330e-05	2.987968e-06	2.502845e-06	
21.674040	2.601067e-06	2.137493e-05	2.962452e-06	2.506794e-06	
21.675041	2.493797e-06	2.077307e-05	2.938256e-06	2.511411e-06	
21.676041	2.383844e-06	2.018825e-05	2.915395e-06	2.516698e-06	
21.677041	2.271713e-06	1.962037e-05	2.893831e-06	2.522627e-06	
21.678042	2.157919e-06	1.906927e-05	2.873526e-06	2.529172e-06	
21.679042	2.042978e-06	1.853482e-05	2.854440e-06	2.536303e-06	
21.680042	1.927403e-06	1.801687e-05	2.836536e-06	2.543995e-06	
21.681043	1.811710e-06	1.751530e-05	2.819773e-06	2.552219e-06	
21.682043	1.696414e-06	1.702995e-05	2.804113e-06	2.560948e-06	
21.683043	1.582030e-06	1.656068e-05	2.789518e-06	2.570154e-06	
21.684044	1.469072e-06	1.610737e-05	2.775949e-06	2.579811e-06	
21.685044	1.358056e-06	1.566986e-05	2.763366e-06	2.589891e-06	
21.686044	1.249496e-06	1.524801e-05	2.751731e-06	2.600365e-06	
21.687045	1.143908e-06	1.484169e-05	2.741005e-06	2.611208e-06	
21.688045	1.041806e-06	1.445076e-05	2.731150e-06	2.622391e-06	
21.689045	9.437044e-07	1.407507e-05	2.722126e-06	2.633886e-06	
21.690046	8.501193e-07	1.371449e-05	2.713895e-06	2.645667e-06	
21.691046	7.615650e-07	1.336888e-05	2.706418e-06	2.657706e-06	
21.692046	6.785566e-07	1.303809e-05	2.699655e-06	2.669976e-06	
21.693047	6.016090e-07	1.272198e-05	2.693569e-06	2.682448e-06	
21.694047	5.312369e-07	1.242042e-05	2.688121e-06	2.695096e-06	
21.695047	4.679554e-07	1.213326e-05	2.683271e-06	2.707892e-06	
21.696047	4.122793e-07	1.186037e-05	2.678981e-06	2.720808e-06	
21.697048	3.647235e-07	1.160160e-05	2.675212e-06	2.733818e-06	
21.698048	3.258029e-07	1.135682e-05	2.671925e-06	2.746894e-06	
21.699048	2.960325e-07	1.112588e-05	2.669081e-06	2.760007e-06	
21.700049	2.759271e-07	1.090865e-05	2.666642e-06	2.773132e-06	
21.701049	2.660016e-07	1.070497e-05	2.664569e-06	2.786239e-06	
21.702049	2.667710e-07	1.051472e-05	2.662823e-06	2.799303e-06	
21.703050	2.787501e-07	1.033776e-05	2.661365e-06	2.812295e-06	
21.704050	3.024538e-07	1.017393e-05	2.660156e-06	2.825188e-06	
21.705050	3.383971e-07	1.002311e-05	2.659157e-06	2.837954e-06	
21.706051	3.870948e-07	9.885156e-06	2.658330e-06	2.850567e-06	
21.707051	4.490619e-07	9.759921e-06	2.657636e-06	2.862998e-06	
21.708051	5.248132e-07	9.647268e-06	2.657036e-06	2.875220e-06	
21.709052	6.148637e-07	9.547058e-06	2.656492e-06	2.887205e-06	
21.710052	7.197282e-07	9.459149e-06	2.655964e-06	2.898927e-06	
21.711052	8.399217e-07	9.383401e-06	2.655413e-06	2.910358e-06	
21.712053	9.759590e-07	9.319676e-06	2.654801e-06	2.921469e-06	
21.713053	1.128355e-06	9.267832e-06	2.654089e-06	2.932235e-06	
21.714053	1.297625e-06	9.227728e-06	2.653238e-06	2.942627e-06	
21.715054	1.484283e-06	9.199226e-06	2.652210e-06	2.952618e-06	
21.716054	1.688845e-06	9.182185e-06	2.650965e-06	2.962180e-06	
21.717054	1.911825e-06	9.176465e-06	2.649464e-06	2.971286e-06	
21.718055	2.153738e-06	9.181925e-06	2.647670e-06	2.979908e-06	
21.719055	2.415100e-06	9.198425e-06	2.645543e-06	2.988020e-06	
21.720055	2.696424e-06	9.225825e-06	2.643044e-06	2.995593e-06	
21.721056	2.998227e-06	9.263985e-06	2.640134e-06	3.002600e-06	
21.722056	3.321022e-06	9.312766e-06	2.636775e-06	3.009014e-06	
21.723056	3.665326e-06	9.372025e-06	2.632928e-06	3.014807e-06	
21.724057	4.031652e-06	9.441624e-06	2.628554e-06	3.019952e-06	
21.725057	4.420469e-06	9.521415e-06	2.623616e-06	3.024422e-06	
21.726057	4.831406e-06	9.611104e-06	2.618124e-06	3.028212e-06	
21.727058	5.263355e-06	9.710275e-06	2.612123e-06	3.031334e-06	
21.728058	5.715186e-06	9.818504e-06	2.605662e-06	3.033801e-06	
21.729058	6.185768e-06	9.935371e-06	2.598789e-06	3.035627e-06	
21.730059	6.673970e-06	1.006045e-05	2.591553e-06	3.036823e-06	
21.731059	7.178661e-06	1.019332e-05	2.584002e-06	3.037404e-06	
21.732059	7.698708e-06	1.033357e-05	2.576185e-06	3.037382e-06	
21.733060	8.232983e-06	1.048076e-05	2.568149e-06	3.036770e-06	
21.734060	8.780352e-06	1.063448e-05	2.559943e-06	3.035581e-06	
21.735060	9.339686e-06	1.079430e-05	2.551615e-06	3.033828e-06	
21.736061	9.909853e-06	1.095980e-05	2.543213e-06	3.031525e-06	
21.737061	1.048972e-05	1.113056e-05	2.534787e-06	3.028684e-06	
21.738061	1.107816e-05	1.130615e-05	2.526383e-06	3.025318e-06	
21.739061	1.167404e-05	1.148617e-05	2.518051e-06	3.021440e-06	
21.740062	1.227623e-05	1.167017e-05	2.509839e-06	3.017063e-06	
21.741062	1.288360e-05	1.185774e-05	2.501795e-06	3.012201e-06	
21.742062	1.349501e-05	1.204847e-05	2.493967e-06	3.006866e-06	
21.743063	1.410934e-05	1.224191e-05	2.486404e-06	3.001071e-06	
21.744063	1.472546e-05	1.243766e-05	2.479154e-06	2.994829e-06	
21.745063	1.534222e-05	1.263530e-05	2.472265e-06	2.988154e-06	
21.746064	1.595851e-05	1.283439e-05	2.465786e-06	2.981058e-06	
21.747064	1.657319e-05	1.303451e-05	2.459764e-06	2.973554e-06	
21.748064	1.718513e-05	1.323526e-05	2.454249e-06	2.965655e-06	
21.749065	1.779320e-05	1.343619e-05	2.449289e-06	2.957375e-06	
21.750065	1.839627e-05	1.363690e-05	2.444931e-06	2.948726e-06	
21.751065	1.899321e-05	1.383695e-05	2.441224e-06	2.939721e-06	
21.752066	1.958288e-05	1.403593e-05	2.438217e-06	2.930373e-06	
21.753066	2.016416e-05	1.423341e-05	2.435957e-06	2.920696e-06	
21.754066	2.073591e-05	1.442897e-05	2.434493e-06	2.910702e-06	
21.755067	2.129700e-05	1.462219e-05	2.433874e-06	2.900405e-06	
21.756067	2.184630e-05	1.481265e-05	2.434148e-06	2.889816e-06	
21.757067	2.238269e-05	1.499993e-05	2.435362e-06	2.878950e-06	
21.758068	2.290502e-05	1.518359e-05	2.437566e-06	2.867820e-06	
21.759068	2.341218e-05	1.536323e-05	2.440807e-06	2.856437e-06	
21.760068	2.390302e-05	1.553841e-05	2.445134e-06	2.844816e-06	
21.761069	2.437641e-05	1.570872e-05	2.450595e-06	2.832969e-06	
21.762069	2.483124e-05	1.587374e-05	2.457239e-06	2.820910e-06	
21.763069	2.526635e-05	1.603303e-05	2.465114e-06	2.808651e-06	
21.764070	2.568063e-05	1.618618e-05	2.474267e-06	2.796205e-06	
21.765070	2.607294e-05	1.633277e-05	2.484748e-06	2.783586e-06	
21.766070	2.644215e-05	1.647238e-05	2.496605e-06	2.770806e-06	
21.767071	2.678714e-05	1.660458e-05	2.509886e-06	2.757879e-06	
21.768071	2.710676e-05	1.672894e-05	2.524639e-06	2.744817e-06	
21.769071	2.739988e-05	1.684506e-05	2.540913e-06	2.731633e-06	
21.770072	2.766539e-05	1.695250e-05	2.558755e-06	2.718340e-06	
21.771072	2.790214e-05	1.705085e-05	2.578215e-06	2.704952e-06	
21.772072	2.810900e-05	1.713967e-05	2.599341e-06	2.691482e-06	
21.773073	2.828485e-05	1.721856e-05	2.622180e-06	2.677942e-06	
21.774073	2.842855e-05	1.728708e-05	2.646782e-06	2.664345e-06	
21.775073	2.853903e-05	1.734484e-05	2.673189e-06	2.650708e-06	
21.776074	2.861631e-05	1.739180e-05	2.701370e-06	2.637102e-06	
21.777074	2.866128e-05	1.742822e-05	2.731226e-06	2.623647e-06	
21.778074	2.867488e-05	1.745439e-05	2.762659e-06	2.610462e-06	
21.779074	2.865804e-05	1.747059e-05	2.795570e-06	2.597668e-06	
21.780075	2.861171e-05	1.747709e-05	2.829859e-06	2.585383e-06	
21.781075	2.853680e-05	1.747416e-05	2.865427e-06	2.573729e-06	
21.782075	2.843425e-05	1.746210e-05	2.902176e-06	2.562826e-06	
21.783076	2.830500e-05	1.744117e-05	2.940005e-06	2.552793e-06	
21.784076	2.814998e-05	1.741165e-05	2.978817e-06	2.543750e-06	
21.785076	2.797012e-05	1.737382e-05	3.018511e-06	2.535817e-06	
21.786077	2.776636e-05	1.732797e-05	3.058988e-06	2.529115e-06	
21.787077	2.753963e-05	1.727436e-05	3.100151e-06	2.523763e-06	
21.788077	2.729086e-05	1.721327e-05	3.141898e-06	2.519882e-06	
21.789078	2.702099e-05	1.714499e-05	3.184132e-06	2.517591e-06	
21.790078	2.673095e-05	1.706978e-05	3.226752e-06	2.517011e-06	
21.791078	2.642167e-05	1.698794e-05	3.269661e-06	2.518261e-06	
21.792079	2.609408e-05	1.689973e-05	3.312758e-06	2.521462e-06	
21.793079	2.574913e-05	1.680543e-05	3.355945e-06	2.526733e-06	
21.794079	2.538774e-05	1.670533e-05	3.399122e-06	2.534195e-06	
21.795080	2.501084e-05	1.659970e-05	3.442191e-06	2.543967e-06	
21.796080	2.461938e-05	1.648881e-05	3.485052e-06	2.556170e-06	
21.797080	2.421428e-05	1.637295e-05	3.527606e-06	2.570924e-06	
21.798081	2.379647e-05	1.625239e-05	3.569754e-06	2.588348e-06	
21.799081	2.336689e-05	1.612742e-05	3.611396e-06	2.608563e-06	
21.800081	2.292648e-05	1.599830e-05	3.652434e-06	2.631688e-06	
21.801082	2.247616e-05	1.586532e-05	3.692769e-06	2.657844e-06	
21.802082	2.201687e-05	1.572875e-05	3.732301e-06	2.687151e-06	
21.803082	2.154955e-05	1.558888e-05	3.770931e-06	2.719728e-06	
21.804083	2.107512e-05	1.544598e-05	3.808560e-06	2.755697e-06	
21.805083	2.059452e-05	1.530032e-05	3.845089e-06	2.795176e-06	
21.806083	2.010868e-05	1.515219e-05	3.880419e-06	2.838285e-06	
21.807084	1.961854e-05	1.500187e-05	3.914451e-06	2.885146e-06	
21.808084	1.912503e-05	1.484963e-05	3.947085e-06	2.935877e-06	
21.809084	1.862908e-05	1.469574e-05	3.978222e-06	2.990599e-06	
21.810085	1.813163e-05	1.454050e-05	4.007764e-06	3.049432e-06	
21.811085	1.763361e-05	1.438417e-05	4.035611e-06	3.112496e-06	
21.812085	1.713595e-05	1.422703e-05	4.061663e-06	3.179910e-06	
21.813086	1.663958e-05	1.406937e-05	4.085823e-06	3.251796e-06	
21.814086	1.614545e-05	1.391145e-05	4.107990e-06	3.328272e-06	
21.815086	1.565447e-05	1.375356e-05	4.128065e-06	3.409460e-06	
21.816087	1.516760e-05	1.359598e-05	4.145950e-06	3.495478e-06	
21.817087	1.468575e-05	1.343897e-05	4.161545e-06	3.586447e-06	
21.818087	1.420986e-05	1.328283e-05	4.174752e-06	3.682487e-06	
21.819088	1.374087e-05	1.312783e-05	4.185470e-06	3.783718e-06	
21.820088	1.327972e-05	1.297424e-05	4.193601e-06	3.890260e-06	
21.821088	1.282732e-05	1.282235e-05	4.199046e-06	4.002234e-06	
21.822088	1.238462e-05	1.267243e-05	4.201705e-06	4.119758e-06	
21.823089	1.195254e-05	1.252476e-05	4.201479e-06	4.242953e-06	
21.824089	1.153204e-05	1.237962e-05	4.198270e-06	4.371939e-06	
21.825089	1.112398e-05	1.223727e-05	4.191985e-06	4.506830e-06	
21.826090	1.072868e-05	1.209780e-05	4.182642e-06	4.647637e-06	
21.827090	1.034594e-05	1.196115e-05	4.170350e-06	4.794288e-06	
21.828090	9.975544e-06	1.182726e-05	4.155217e-06	4.946710e-06	
21.829091	9.617297e-06	1.169606e-05	4.137355e-06	5.104829e-06	
21.830091	9.270990e-06	1.156748e-05	4.116872e-06	5.268573e-06	
21.831091	8.936416e-06	1.144147e-05	4.093878e-06	5.437866e-06	
21.832092	8.613371e-06	1.131797e-05	4.068484e-06	5.612637e-06	
21.833092	8.301648e-06	1.119689e-05	4.040800e-06	5.792811e-06	
21.834092	8.001041e-06	1.107819e-05	4.010935e-06	5.978315e-06	
21.835093	7.711345e-06	1.096180e-05	3.978998e-06	6.169074e-06	
21.836093	7.432353e-06	1.084766e-05	3.945101e-06	6.365017e-06	
21.837093	7.163861e-06	1.073569e-05	3.909353e-06	6.566069e-06	
21.838094	6.905661e-06	1.062584e-05	3.871864e-06	6.772157e-06	
21.839094	6.657548e-06	1.051805e-05	3.832743e-06	6.983207e-06	
21.840094	6.419316e-06	1.041224e-05	3.792102e-06	7.199145e-06	
21.841095	6.190759e-06	1.030836e-05	3.750048e-06	7.419899e-06	
21.842095	5.971672e-06	1.020634e-05	3.706693e-06	7.645394e-06	
21.843095	5.761849e-06	1.010612e-05	3.662147e-06	7.875558e-06	
21.844096	5.561083e-06	1.000763e-05	3.616518e-06	8.110316e-06	
21.845096	5.369169e-06	9.910810e-06	3.569918e-06	8.349595e-06	
21.846096	5.185901e-06	9.815596e-06	3.522455e-06	8.593321e-06	
21.847097	5.011073e-06	9.721925e-06	3.474241e-06	8.841422e-06	
21.848097	4.844479e-06	9.629732e-06	3.425384e-06	9.093823e-06	
21.849097	4.685913e-06	9.538953e-06	3.375995e-06	9.350451e-06	
21.850098	4.535170e-06	9.449524e-06	3.326183e-06	9.611233e-06	
21.851098	4.392043e-06	9.361382e-06	3.276059e-06	9.876094e-06	
21.852098	4.256328e-06	9.274462e-06	3.225732e-06	1.014496e-05	
21.853099	4.127817e-06	9.188700e-06	3.175313e-06	1.041776e-05	
21.854099	4.006305e-06	9.104034e-06	3.124910e-06	1.069442e-05	
21.855099	3.891586e-06	9.020397e-06	3.074635e-06	1.097487e-05	
21.856100	3.783454e-06	8.937728e-06	3.024596e-06	1.125903e-05	
21.857100	3.681704e-06	8.855962e-06	2.974904e-06	1.154682e-05	
21.858100	3.586129e-06	8.775035e-06	2.925669e-06	1.183819e-05	
21.859101	3.496524e-06	8.694883e-06	2.877000e-06	1.213304e-05	
21.860101	3.412682e-06	8.615442e-06	2.829008e-06	1.243131e-05	
21.861101	3.334399e-06	8.536649e-06	2.781803e-06	1.273293e-05	
21.862101	3.261468e-06	8.458439e-06	2.735493e-06	1.303782e-05	
21.863102	3.193682e-06	8.380749e-06	2.690190e-06	1.334590e-05	
21.864102	3.130837e-06	8.303515e-06	2.646002e-06	1.365711e-05	
21.865102	3.072727e-06	8.226672e-06	2.603041e-06	1.397137e-05	
21.866103	3.019145e-06	8.150158e-06	2.561415e-06	1.428861e-05	
21.867103	2.969885e-06	8.073907e-06	2.521235e-06	1.460875e-05	
21.868103	2.924743e-06	7.997857e-06	2.482611e-06	1.493172e-05	
21.869104	2.883511e-06	7.921942e-06	2.445652e-06	1.525745e-05	
21.870104	2.845985e-06	7.846101e-06	2.410469e-06	1.558586e-05	
21.871104	2.811957e-06	7.770267e-06	2.377171e-06	1.591688e-05	
21.872105	2.781223e-06	7.694378e-06	2.345868e-06	1.625044e-05	
21.873105	2.753577e-06	7.618370e-06	2.316670e-06	1.658646e-05	
21.874105	2.728812e-06	7.542179e-06	2.289687e-06	1.692487e-05	
21.875106	2.706732e-06	7.465747e-06	2.265022e-06	1.726558e-05	
21.876106	2.687287e-06	7.389109e-06	2.242681e-06	1.760836e-05	
21.877106	2.670536e-06	7.312371e-06	2.222594e-06	1.795284e-05	
21.878107	2.656543e-06	7.235642e-06	2.204690e-06	1.829866e-05	
21.879107	2.645369e-06	7.159030e-06	2.188896e-06	1.864547e-05	
21.880107	2.637079e-06	7.082643e-06	2.175142e-06	1.899288e-05	
21.881108	2.631736e-06	7.006589e-06	2.163355e-06	1.934055e-05	
21.882108	2.629401e-06	6.930977e-06	2.153465e-06	1.968811e-05	
21.883108	2.630138e-06	6.855914e-06	2.145398e-06	2.003520e-05	
21.884109	2.634011e-06	6.781509e-06	2.139085e-06	2.038145e-05	
21.885109	2.641082e-06	6.707870e-06	2.134453e-06	2.072650e-05	
21.886109	2.651414e-06	6.635104e-06	2.131430e-06	2.106999e-05	
21.887110	2.665070e-06	6.563321e-06	2.129945e-06	2.141155e-05	
21.888110	2.682113e-06	6.492628e-06	2.129926e-06	2.175082e-05	
21.889110	2.702606e-06	6.423134e-06	2.131302e-06	2.208744e-05	
21.890111	2.726612e-06	6.354946e-06	2.134002e-06	2.242105e-05	
21.891111	2.754194e-06	6.288174e-06	2.137952e-06	2.275127e-05	
21.892111	2.785415e-06	6.222924e-06	2.143083e-06	2.307776e-05	
21.893112	2.820337e-06	6.159306e-06	2.149322e-06	2.340014e-05	
21.894112	2.859025e-06	6.097426e-06	2.156598e-06	2.371805e-05	
21.895112	2.901540e-06	6.037395e-06	2.164838e-06	2.403114e-05	
21.896113	2.947947e-06	5.979319e-06	2.173972e-06	2.433903e-05	
21.897113	2.998307e-06	5.923307e-06	2.183928e-06	2.464136e-05	
21.898113	3.052683e-06	5.869467e-06	2.194634e-06	2.493777e-05	
21.899114	3.111140e-06	5.817907e-06	2.206018e-06	2.522790e-05	
21.900114	3.173739e-06	5.768735e-06	2.218010e-06	2.551138e-05	
21.901114	3.240544e-06	5.722060e-06	2.230537e-06	2.578786e-05	
21.902115	3.311617e-06	5.677990e-06	2.243527e-06	2.605696e-05	
21.903115	3.387022e-06	5.636632e-06	2.256910e-06	2.631833e-05	
21.904115	3.466822e-06	5.598096e-06	2.270613e-06	2.657160e-05	
21.905115	3.551079e-06	5.562488e-06	2.284565e-06	2.681641e-05	
21.906116	3.639857e-06	5.529918e-06	2.298694e-06	2.705239e-05	
21.907116	3.733218e-06	5.500494e-06	2.312930e-06	2.727918e-05	
21.908116	3.831226e-06	5.474323e-06	2.327199e-06	2.749643e-05	
21.909117	3.933943e-06	5.451514e-06	2.341430e-06	2.770376e-05	
21.910117	4.041432e-06	5.432175e-06	2.355552e-06	2.790082e-05	
21.911117	4.153757e-06	5.416414e-06	2.369494e-06	2.808723e-05	
21.912118	4.270981e-06	5.404340e-06	2.383183e-06	2.826264e-05	
21.913118	4.393165e-06	5.396060e-06	2.396548e-06	2.842669e-05	
21.914118	4.520374e-06	5.391683e-06	2.409518e-06	2.857901e-05	
21.915119	4.652670e-06	5.391316e-06	2.422020e-06	2.871923e-05	
21.916119	4.790117e-06	5.395069e-06	2.433983e-06	2.884700e-05	
21.917119	4.932776e-06	5.403049e-06	2.445336e-06	2.896195e-05	
21.918120	5.080712e-06	5.415364e-06	2.456007e-06	2.906372e-05	
21.919120	5.233987e-06	5.432122e-06	2.465924e-06	2.915195e-05	
21.920120	5.392664e-06	5.453433e-06	2.475016e-06	2.922626e-05	
21.921121	5.556806e-06	5.479403e-06	2.483211e-06	2.928631e-05	
21.922121	5.726476e-06	5.510141e-06	2.490437e-06	2.933172e-05	
21.923121	5.901738e-06	5.545755e-06	2.496624e-06	2.936214e-05	
21.924122	6.082653e-06	5.586354e-06	2.501698e-06	2.937720e-05	
21.925122	6.269311e-06	5.632039e-06	2.505593e-06	2.937657e-05	
21.926122	6.462165e-06	5.682822e-06	2.508304e-06	2.936055e-05	
21.927123	6.661934e-06	5.738653e-06	2.509868e-06	2.932986e-05	
21.928123	6.869345e-06	5.799477e-06	2.510327e-06	2.928522e-05	
21.929123	7.085124e-06	5.865240e-06	2.509720e-06	2.922738e-05	
21.930124	7.309998e-06	5.935888e-06	2.508088e-06	2.915706e-05	
21.931124	7.544692e-06	6.011367e-06	2.505470e-06	2.907501e-05	
21.932124	7.789934e-06	6.091624e-06	2.501907e-06	2.898196e-05	
21.933125	8.046448e-06	6.176604e-06	2.497438e-06	2.887864e-05	
21.934125	8.314963e-06	6.266254e-06	2.492105e-06	2.876579e-05	
21.935125	8.596203e-06	6.360520e-06	2.485946e-06	2.864413e-05	
21.936126	8.890895e-06	6.459348e-06	2.479003e-06	2.851441e-05	
21.937126	9.199766e-06	6.562684e-06	2.471316e-06	2.837736e-05	
21.938126	9.523542e-06	6.670474e-06	2.462923e-06	2.823372e-05	
21.939127	9.862949e-06	6.782664e-06	2.453867e-06	2.808421e-05	
21.940127	1.021871e-05	6.899201e-06	2.444186e-06	2.792958e-05	
21.941127	1.059156e-05	7.020031e-06	2.433921e-06	2.777055e-05	
21.942128	1.098222e-05	7.145100e-06	2.423112e-06	2.760786e-05	
21.943128	1.139141e-05	7.274353e-06	2.411799e-06	2.744225e-05	
21.944128	1.181987e-05	7.407737e-06	2.400022e-06	2.727445e-05	
21.945128	1.226832e-05	7.545199e-06	2.387822e-06	2.710520e-05	
21.946129	1.273748e-05	7.686683e-06	2.375238e-06	2.693522e-05	
21.947129	1.322808e-05	7.832137e-06	2.362310e-06	2.676526e-05	
21.948129	1.374085e-05	7.981507e-06	2.349080e-06	2.659604e-05	
21.949130	1.427651e-05	8.134738e-06	2.335586e-06	2.642831e-05	
21.950130	1.483580e-05	8.291778e-06	2.321869e-06	2.626279e-05	
21.951130	1.541943e-05	8.452571e-06	2.307970e-06	2.610022e-05	
21.952131	1.602813e-05	8.617064e-06	2.293927e-06	2.594134e-05	
21.953131	1.666263e-05	8.785203e-06	2.279782e-06	2.578688e-05	
21.954131	1.732366e-05	8.956934e-06	2.265575e-06	2.563758e-05	
21.955132	1.801194e-05	9.132204e-06	2.251345e-06	2.549416e-05	
21.956132	1.872820e-05	9.310959e-06	2.237133e-06	2.535736e-05	
21.957132	1.947316e-05	9.493144e-06	2.222979e-06	2.522792e-05	
21.958133	2.024756e-05	9.678706e-06	2.208923e-06	2.510658e-05	
21.959133	2.105211e-05	9.867591e-06	2.195005e-06	2.499406e-05	
21.960133	2.188754e-05	1.005975e-05	2.181265e-06	2.489110e-05	
21.961134	2.275458e-05	1.025511e-05	2.167743e-06	2.479843e-05	
21.962134	2.365396e-05	1.045364e-05	2.154480e-06	2.471679e-05	
21.963134	2.458641e-05	1.065528e-05	2.141516e-06	2.464692e-05	
21.964135	2.555264e-05	1.085997e-05	2.128891e-06	2.458955e-05	
21.965135	2.655338e-05	1.106767e-05	2.116644e-06	2.454540e-05	
21.966135	2.758937e-05	1.127830e-05	2.104817e-06	2.451523e-05	
21.967136	2.866132e-05	1.149183e-05	2.093448e-06	2.449975e-05	
21.968136	2.976997e-05	1.170820e-05	2.082579e-06	2.449971e-05	
21.969136	3.091603e-05	1.192735e-05	2.072249e-06	2.451585e-05	
21.970137	3.210024e-05	1.214923e-05	2.062499e-06	2.454888e-05	
21.971137	3.332333e-05	1.237379e-05	2.053368e-06	2.459955e-05	
21.972137	3.458601e-05	1.260097e-05	2.044898e-06	2.466860e-05	
21.973138	3.588902e-05	1.283072e-05	2.037127e-06	2.475676e-05	
21.974138	3.723308e-05	1.306299e-05	2.030096e-06	2.486475e-05	
21.975138	3.861881e-05	1.329769e-05	2.023843e-06	2.499324e-05	
21.976139	4.004530e-05	1.353447e-05	2.018378e-06	2.514179e-05	
21.977139	4.151062e-05	1.377274e-05	2.013693e-06	2.530920e-05	
21.978139	4.301279e-05	1.401194e-05	2.009777e-06	2.549426e-05	
21.979140	4.454983e-05	1.425148e-05	2.006620e-06	2.569575e-05	
21.980140	4.611978e-05	1.449079e-05	2.004213e-06	2.591246e-05	
21.981140	4.772066e-05	1.472929e-05	2.002546e-06	2.614317e-05	
21.982141	4.935049e-05	1.496640e-05	2.001609e-06	2.638667e-05	
21.983141	5.100732e-05	1.520155e-05	2.001393e-06	2.664174e-05	
21.984141	5.268915e-05	1.543416e-05	2.001887e-06	2.690716e-05	
21.985142	5.439402e-05	1.566366e-05	2.003083e-06	2.718173e-05	
21.986142	5.611996e-05	1.588946e-05	2.004970e-06	2.746423e-05	
21.987142	5.786499e-05	1.611099e-05	2.007539e-06	2.775344e-05	
21.988142	5.962714e-05	1.632767e-05	2.010780e-06	2.804815e-05	
21.989143	6.140445e-05	1.653892e-05	2.014682e-06	2.834714e-05	
21.990143	6.319492e-05	1.674418e-05	2.019237e-06	2.864920e-05	
21.991143	6.499660e-05	1.694285e-05	2.024435e-06	2.895312e-05	
21.992144	6.680751e-05	1.713438e-05	2.030266e-06	2.925767e-05	
21.993144	6.862568e-05	1.731816e-05	2.036720e-06	2.956165e-05	
21.994144	7.044913e-05	1.749364e-05	2.043787e-06	2.986384e-05	
21.995145	7.227589e-05	1.766023e-05	2.051458e-06	3.016303e-05	
21.996145	7.410399e-05	1.781736e-05	2.059723e-06	3.045799e-05	
21.997145	7.593146e-05	1.796445e-05	2.068573e-06	3.074752e-05	
21.998146	7.775632e-05	1.810092e-05	2.077997e-06	3.103040e-05	
21.999146	7.957660e-05	1.822619e-05	2.087985e-06	3.130541e-05	
22.000146	8.139033e-05	1.833970e-05	2.098529e-06	3.157134e-05	
22.001147	8.319553e-05	1.844085e-05	2.109618e-06	3.182699e-05	
22.002147	8.499023e-05	1.852908e-05	2.121242e-06	3.207112e-05	
22.003147	8.677247e-05	1.860381e-05	2.133393e-06	3.230253e-05	
22.004148	8.854025e-05	1.866446e-05	2.146059e-06	3.251999e-05	
22.005148	9.029163e-05	1.871045e-05	2.159232e-06	3.272231e-05	
22.006148	9.202461e-05	1.874121e-05	2.172902e-06	3.290826e-05	
22.007149	9.373723e-05	1.875615e-05	2.187058e-06	3.307662e-05	
22.008149	9.542752e-05	1.875471e-05	2.201692e-06	3.322619e-05	
22.009149	9.709349e-05	1.873631e-05	2.216793e-06	3.335574e-05	
22.010150	9.873319e-05	1.870037e-05	2.232351e-06	3.346407e-05	
22.011150	1.003446e-04	1.864630e-05	2.248358e-06	3.354995e-05	
22.012150	1.019259e-04	1.857354e-05	2.264803e-06	3.361218e-05	
22.013151	1.034749e-04	1.848151e-05	2.281676e-06	3.364954e-05	
22.014151	1.049897e-04	1.836963e-05	2.298968e-06	3.366080e-05	
22.015151	1.064684e-04	1.823733e-05	2.316669e-06	3.364477e-05	
22.016152	1.079090e-04	1.808402e-05	2.334769e-06	3.360022e-05	
22.017152	1.093095e-04	1.790913e-05	2.353259e-06	3.352594e-05	
22.018152	1.106679e-04	1.771208e-05	2.372129e-06	3.342071e-05	
22.019153	1.119823e-04	1.749230e-05	2.391368e-06	3.328333e-05	
22.020153	1.132507e-04	1.724921e-05	2.410968e-06	3.311256e-05	
22.021153	1.144711e-04	1.698223e-05	2.430919e-06	3.290721e-05	
22.022154	1.156416e-04	1.669079e-05	2.451211e-06	3.266605e-05	
22.023154	1.167601e-04	1.637430e-05	2.471833e-06	3.238787e-05	
22.024154	1.178247e-04	1.603220e-05	2.492777e-06	3.207146e-05	
22.025155	1.188336e-04	1.566403e-05	2.514032e-06	3.171584e-05	
22.026155	1.197860e-04	1.527096e-05	2.535578e-06	3.132313e-05	
22.027155	1.206823e-04	1.485526e-05	2.557389e-06	3.089751e-05	
22.028155	1.215226e-04	1.441921e-05	2.579438e-06	3.044319e-05	
22.029156	1.223072e-04	1.396509e-05	2.601700e-06	2.996441e-05	
22.030156	1.230362e-04	1.349518e-05	2.624149e-06	2.946537e-05	
22.031156	1.237100e-04	1.301177e-05	2.646757e-06	2.895031e-05	
22.032157	1.243288e-04	1.251713e-05	2.669499e-06	2.842343e-05	
22.033157	1.248927e-04	1.201354e-05	2.692349e-06	2.788897e-05	
22.034157	1.254020e-04	1.150330e-05	2.715280e-06	2.735114e-05	
22.035158	1.258570e-04	1.098868e-05	2.738267e-06	2.681417e-05	
22.036158	1.262578e-04	1.047196e-05	2.761282e-06	2.628227e-05	
22.037158	1.266047e-04	9.955422e-06	2.784300e-06	2.575967e-05	
22.038159	1.268980e-04	9.441354e-06	2.807294e-06	2.525058e-05	
22.039159	1.271378e-04	8.932034e-06	2.830238e-06	2.475923e-05	
22.040159	1.273243e-04	8.429745e-06	2.853106e-06	2.428984e-05	
22.041160	1.274579e-04	7.936768e-06	2.875872e-06	2.384663e-05	
22.042160	1.275387e-04	7.455386e-06	2.898510e-06	2.343382e-05	
22.043160	1.275669e-04	6.987880e-06	2.920993e-06	2.305563e-05	
22.044161	1.275429e-04	6.536531e-06	2.943295e-06	2.271628e-05	
22.045161	1.274667e-04	6.103623e-06	2.965389e-06	2.241999e-05	
22.046161	1.273387e-04	5.691436e-06	2.987250e-06	2.217099e-05	
22.047162	1.271591e-04	5.302253e-06	3.008852e-06	2.197349e-05	
22.048162	1.269281e-04	4.938355e-06	3.030167e-06	2.183172e-05	
22.049162	1.266459e-04	4.602025e-06	3.051171e-06	2.174990e-05	
22.050163	1.263127e-04	4.295544e-06	3.071836e-06	2.173224e-05	
22.051163	1.259288e-04	4.021195e-06	3.092136e-06	2.178296e-05	
22.052163	1.254945e-04	3.781258e-06	3.112046e-06	2.190630e-05	
22.053164	1.250099e-04	3.578016e-06	3.131538e-06	2.210647e-05	
22.054164	1.244752e-04	3.413751e-06	3.150588e-06	2.238768e-05	
22.055164	1.238907e-04	3.290744e-06	3.169167e-06	2.275417e-05	
22.056165	1.232567e-04	3.211278e-06	3.187251e-06	2.321015e-05	
22.057165	1.225733e-04	3.177635e-06	3.204813e-06	2.375985e-05	
22.058165	1.218408e-04	3.192095e-06	3.221827e-06	2.440747e-05	
22.059166	1.210594e-04	3.256942e-06	3.238266e-06	2.515726e-05	
22.060166	1.202293e-04	3.374457e-06	3.254105e-06	2.601341e-05	
22.061166	1.193508e-04	3.546922e-06	3.269317e-06	2.698017e-05	
22.062167	1.184241e-04	3.776618e-06	3.283875e-06	2.806174e-05	
22.063167	1.174494e-04	4.065828e-06	3.297754e-06	2.926235e-05	
22.064167	1.164269e-04	4.416834e-06	3.310928e-06	3.058622e-05	
22.065168	1.153569e-04	4.831917e-06	3.323370e-06	3.203756e-05	
22.066168	1.142397e-04	5.313360e-06	3.335053e-06	3.362061e-05	
22.067168	1.130753e-04	5.863443e-06	3.345953e-06	3.533958e-05	
22.068169	1.118641e-04	6.484450e-06	3.356042e-06	3.719870e-05	
22.069169	1.106063e-04	7.178661e-06	3.365294e-06	3.920217e-05	
22.070169	1.093021e-04	7.948359e-06	3.373683e-06	4.135423e-05	
22.071169	1.079517e-04	8.795826e-06	3.381182e-06	4.365910e-05	
22.072170	1.065554e-04	9.723343e-06	3.387767e-06	4.612099e-05	
22.073170	1.051135e-04	1.073319e-05	3.393409e-06	4.874413e-05	
22.074170	1.036260e-04	1.182766e-05	3.398084e-06	5.153273e-05	
22.075171	1.020934e-04	1.300874e-05	3.401773e-06	5.449037e-05	
22.076171	1.005173e-04	1.427518e-05	3.404551e-06	5.761291e-05	
22.077171	9.890039e-05	1.562360e-05	3.406555e-06	6.089129e-05	
22.078172	9.724513e-05	1.705062e-05	3.407924e-06	6.431633e-05	
22.079172	9.555412e-05	1.855281e-05	3.408794e-06	6.787886e-05	
22.080172	9.382992e-05	2.012679e-05	3.409302e-06	7.156973e-05	
22.081173	9.207511e-05	2.176914e-05	3.409588e-06	7.537975e-05	
22.082173	9.029225e-05	2.347647e-05	3.409787e-06	7.929977e-05	
22.083173	8.848392e-05	2.524536e-05	3.410038e-06	8.332062e-05	
22.084174	8.665268e-05	2.707243e-05	3.410478e-06	8.743314e-05	
22.085174	8.480111e-05	2.895425e-05	3.411246e-06	9.162815e-05	
22.086174	8.293177e-05	3.088744e-05	3.412477e-06	9.589649e-05	
22.087175	8.104723e-05	3.286859e-05	3.414311e-06	1.002290e-04	
22.088175	7.915006e-05	3.489428e-05	3.416884e-06	1.046165e-04	
22.089175	7.724283e-05	3.696113e-05	3.420335e-06	1.090498e-04	
22.090176	7.532811e-05	3.906573e-05	3.424800e-06	1.135198e-04	
22.091176	7.340847e-05	4.120467e-05	3.430417e-06	1.180173e-04	
22.092176	7.148648e-05	4.337455e-05	3.437324e-06	1.225332e-04	
22.093177	6.956471e-05	4.557198e-05	3.445659e-06	1.270581e-04	
22.094177	6.764572e-05	4.779353e-05	3.455559e-06	1.315831e-04	
22.095177	6.573209e-05	5.003582e-05	3.467161e-06	1.360990e-04	
22.096178	6.382638e-05	5.229543e-05	3.480604e-06	1.405964e-04	
22.097178	6.193117e-05	5.456897e-05	3.496024e-06	1.450664e-04	
22.098178	6.004903e-05	5.685304e-05	3.513560e-06	1.494998e-04	
22.099179	5.818252e-05	5.914422e-05	3.533348e-06	1.538872e-04	
22.100179	5.633421e-05	6.143912e-05	3.555527e-06	1.582197e-04	
22.101179	5.450667e-05	6.373433e-05	3.580234e-06	1.624880e-04	
22.102180	5.270247e-05	6.602644e-05	3.607607e-06	1.666830e-04	
22.103180	5.092419e-05	6.831207e-05	3.637783e-06	1.707955e-04	
22.104180	4.917438e-05	7.058780e-05	3.670899e-06	1.748163e-04	
22.105181	4.745563e-05	7.285022e-05	3.707094e-06	1.787363e-04	
22.106181	4.577049e-05	7.509595e-05	3.746505e-06	1.825463e-04	
22.107181	4.412154e-05	7.732156e-05	3.789269e-06	1.862371e-04	
22.108182	4.251135e-05	7.952367e-05	3.835525e-06	1.897996e-04	
22.109182	4.094249e-05	8.169886e-05	3.885409e-06	1.932246e-04	
22.110182	3.941752e-05	8.384374e-05	3.939059e-06	1.965029e-04	
22.111182	3.793901e-05	8.595489e-05	3.996613e-06	1.996254e-04	
22.112183	3.650955e-05	8.802893e-05	4.058209e-06	2.025828e-04	
22.113183	3.513168e-05	9.006243e-05	4.123983e-06	2.053662e-04	
22.114183	3.380799e-05	9.205201e-05	4.194074e-06	2.079661e-04	
22.115184	3.254104e-05	9.399426e-05	4.268619e-06	2.103736e-04	
22.116184	3.133340e-05	9.588577e-05	4.347756e-06	2.125795e-04	
22.117184	3.018764e-05	9.772314e-05	4.431621e-06	2.145745e-04	
22.118185	2.910634e-05	9.950297e-05	4.520354e-06	2.163495e-04	
22.119185	2.809205e-05	1.012218e-04	4.614091e-06	2.178953e-04	
22.120185	2.714735e-05	1.028764e-04	4.712970e-06	2.192028e-04	
22.121186	2.627481e-05	1.044632e-04	4.817129e-06	2.202628e-04	
22.122186	2.547700e-05	1.059788e-04	4.926705e-06	2.210661e-04	
22.123186	2.475649e-05	1.074199e-04	5.041835e-06	2.216036e-04	
22.124187	2.411584e-05	1.087830e-04	5.162658e-06	2.218662e-04	
22.125187	2.355735e-05	1.100650e-04	5.289287e-06	2.218455e-04	
22.126187	2.308020e-05	1.112654e-04	5.421574e-06	2.215440e-04	
22.127188	2.268167e-05	1.123857e-04	5.559209e-06	2.209708e-04	
22.128188	2.235902e-05	1.134271e-04	5.701882e-06	2.201349e-04	
22.129188	2.210948e-05	1.143909e-04	5.849278e-06	2.190455e-04	
22.130189	2.193030e-05	1.152785e-04	6.001088e-06	2.177116e-04	
22.131189	2.181874e-05	1.160912e-04	6.156997e-06	2.161423e-04	
22.132189	2.177204e-05	1.168304e-04	6.316695e-06	2.143468e-04	
22.133190	2.178745e-05	1.174972e-04	6.479869e-06	2.123342e-04	
22.134190	2.186221e-05	1.180932e-04	6.646208e-06	2.101134e-04	
22.135190	2.199358e-05	1.186196e-04	6.815398e-06	2.076938e-04	
22.136191	2.217879e-05	1.190778e-04	6.987129e-06	2.050843e-04	
22.137191	2.241510e-05	1.194690e-04	7.161087e-06	2.022941e-04	
22.138191	2.269976e-05	1.197946e-04	7.336962e-06	1.993322e-04	
22.139192	2.303001e-05	1.200559e-04	7.514440e-06	1.962078e-04	
22.140192	2.340310e-05	1.202543e-04	7.693210e-06	1.929300e-04	
22.141192	2.381628e-05	1.203911e-04	7.872960e-06	1.895078e-04	
22.142193	2.426680e-05	1.204676e-04	8.053377e-06	1.859504e-04	
22.143193	2.475189e-05	1.204852e-04	8.234150e-06	1.822669e-04	
22.144193	2.526882e-05	1.204451e-04	8.414966e-06	1.784664e-04	
22.145194	2.581483e-05	1.203487e-04	8.595514e-06	1.745579e-04	
22.146194	2.638716e-05	1.201974e-04	8.775482e-06	1.705507e-04	
22.147194	2.698306e-05	1.199924e-04	8.954557e-06	1.664537e-04	
22.148195	2.759979e-05	1.197350e-04	9.132426e-06	1.622761e-04	
22.149195	2.823458e-05	1.194267e-04	9.308780e-06	1.580270e-04	
22.150195	2.888469e-05	1.190688e-04	9.483304e-06	1.537155e-04	
22.151196	2.954737e-05	1.186625e-04	9.655687e-06	1.493507e-04	
22.152196	3.021985e-05	1.182092e-04	9.825618e-06	1.449417e-04	
22.153196	3.089940e-05	1.177103e-04	9.992783e-06	1.404976e-04	
22.154196	3.158324e-05	1.171670e-04	1.015687e-05	1.360275e-04	
22.155197	3.226865e-05	1.165807e-04	1.031757e-05	1.315405e-04	
22.156197	3.295285e-05	1.159527e-04	1.047457e-05	1.270458e-04	
22.157197	3.363310e-05	1.152843e-04	1.062755e-05	1.225523e-04	
22.158198	3.430665e-05	1.145769e-04	1.077621e-05	1.180692e-04	
22.159198	3.497074e-05	1.138318e-04	1.092023e-05	1.136057e-04	
22.160198	3.562263e-05	1.130504e-04	1.105930e-05	1.091708e-04	
22.161199	3.625955e-05	1.122339e-04	1.119311e-05	1.047736e-04	
22.162199	3.687876e-05	1.113836e-04	1.132135e-05	1.004233e-04	
22.163199	3.747750e-05	1.105010e-04	1.144370e-05	9.612884e-05	
22.164200	3.805302e-05	1.095874e-04	1.155986e-05	9.189944e-05	
22.165200	3.860258e-05	1.086440e-04	1.166950e-05	8.774418e-05	
22.166200	3.912341e-05	1.076722e-04	1.177232e-05	8.367216e-05	
22.167201	3.961276e-05	1.066733e-04	1.186801e-05	7.969247e-05	
22.168201	4.006789e-05	1.056487e-04	1.195625e-05	7.581423e-05	
22.169201	4.048603e-05	1.045996e-04	1.203673e-05	7.204653e-05	
22.170202	4.086444e-05	1.035275e-04	1.210915e-05	6.839848e-05	
22.171202	4.120037e-05	1.024336e-04	1.217318e-05	6.487917e-05	
22.172202	4.149106e-05	1.013193e-04	1.222851e-05	6.149773e-05	
22.173203	4.173375e-05	1.001859e-04	1.227484e-05	5.826323e-05	
22.174203	4.192571e-05	9.903467e-05	1.231185e-05	5.518480e-05	
22.175203	4.206442e-05	9.786700e-05	1.233928e-05	5.227077e-05	
22.176204	4.215011e-05	9.668378e-05	1.235726e-05	4.952167e-05	
22.177204	4.218458e-05	9.548576e-05	1.236621e-05	4.693341e-05	
22.178204	4.216965e-05	9.427367e-05	1.236653e-05	4.450182e-05	
22.179205	4.210716e-05	9.304822e-05	1.235863e-05	4.222273e-05	
22.180205	4.199892e-05	9.181015e-05	1.234292e-05	4.009198e-05	
22.181205	4.184677e-05	9.056020e-05	1.231979e-05	3.810540e-05	
22.182206	4.165253e-05	8.929908e-05	1.228967e-05	3.625883e-05	
22.183206	4.141803e-05	8.802753e-05	1.225294e-05	3.454810e-05	
22.184206	4.114509e-05	8.674628e-05	1.221003e-05	3.296905e-05	
22.185207	4.083556e-05	8.545605e-05	1.216133e-05	3.151752e-05	
22.186207	4.049124e-05	8.415758e-05	1.210726e-05	3.018933e-05	
22.187207	4.011397e-05	8.285160e-05	1.204821e-05	2.898033e-05	
22.188208	3.970558e-05	8.153882e-05	1.198460e-05	2.788635e-05	
22.189208	3.926789e-05	8.022000e-05	1.191683e-05	2.690322e-05	
22.190208	3.880273e-05	7.889584e-05	1.184531e-05	2.602679e-05	
22.191209	3.831192e-05	7.756709e-05	1.177044e-05	2.525287e-05	
22.192209	3.779730e-05	7.623446e-05	1.169264e-05	2.457732e-05	
22.193209	3.726069e-05	7.489870e-05	1.161230e-05	2.399596e-05	
22.194209	3.670392e-05	7.356053e-05	1.152984e-05	2.350464e-05	
22.195210	3.612881e-05	7.222067e-05	1.144565e-05	2.309917e-05	
22.196210	3.553720e-05	7.087986e-05	1.136015e-05	2.277541e-05	
22.197210	3.493091e-05	6.953883e-05	1.127375e-05	2.252919e-05	
22.198211	3.431176e-05	6.819830e-05	1.118684e-05	2.235634e-05	
22.199211	3.368158e-05	6.685901e-05	1.109984e-05	2.225269e-05	
22.200211	3.304221e-05	6.552169e-05	1.101314e-05	2.221408e-05	
22.201212	3.239546e-05	6.418705e-05	1.092717e-05	2.223636e-05	
22.202212	3.174317e-05	6.285584e-05	1.084232e-05	2.231534e-05	
22.203212	3.108716e-05	6.152878e-05	1.075900e-05	2.244687e-05	
22.204213	3.042926e-05	6.020660e-05	1.067762e-05	2.262678e-05	
22.205213	2.977129e-05	5.889004e-05	1.059859e-05	2.285091e-05	
22.206213	2.911509e-05	5.757981e-05	1.052230e-05	2.311510e-05	
22.207214	2.846248e-05	5.627665e-05	1.044917e-05	2.341517e-05	
22.208214	2.781529e-05	5.498128e-05	1.037960e-05	2.374696e-05	
22.209214	2.717534e-05	5.369445e-05	1.031399e-05	2.410632e-05	
22.210215	2.654446e-05	5.241687e-05	1.025277e-05	2.448906e-05	
22.211215	2.592448e-05	5.114927e-05	1.019632e-05	2.489104e-05	
22.212215	2.531722e-05	4.989239e-05	1.014507e-05	2.530807e-05	
22.213216	2.472452e-05	4.864695e-05	1.009940e-05	2.573601e-05	
22.214216	2.414820e-05	4.741369e-05	1.005974e-05	2.617068e-05	
22.215216	2.359009e-05	4.619333e-05	1.002649e-05	2.660792e-05	
22.216217	2.305201e-05	4.498660e-05	1.000004e-05	2.704357e-05	
22.217217	2.253579e-05	4.379422e-05	9.980820e-06	2.747345e-05	
22.218217	2.204326e-05	4.261694e-05	9.969223e-06	2.789341e-05	
22.219218	2.157624e-05	4.145548e-05	9.965658e-06	2.829928e-05	
22.220218	2.113657e-05	4.031056e-05	9.970531e-06	2.868690e-05	
22.221218	2.072607e-05	3.918292e-05	9.984250e-06	2.905209e-05	
22.222219	2.034656e-05	3.807329e-05	1.000722e-05	2.939071e-05	
22.223219	1.999988e-05	3.698239e-05	1.003985e-05	2.969857e-05	
22.224219	1.968784e-05	3.591096e-05	1.008254e-05	2.997152e-05	
22.225220	1.941212e-05	3.485971e-05	1.013566e-05	3.020572e-05	
22.226220	1.917273e-05	3.382921e-05	1.019918e-05	3.040070e-05	
22.227220	1.896875e-05	3.281997e-05	1.027284e-05	3.055786e-05	
22.228221	1.879926e-05	3.183248e-05	1.035638e-05	3.067860e-05	
22.229221	1.866333e-05	3.086724e-05	1.044954e-05	3.076437e-05	
22.230221	1.856005e-05	2.992475e-05	1.055207e-05	3.081657e-05	
22.231222	1.848849e-05	2.900551e-05	1.066370e-05	3.083664e-05	
22.232222	1.844771e-05	2.811001e-05	1.078417e-05	3.082599e-05	
22.233222	1.843681e-05	2.723875e-05	1.091323e-05	3.078605e-05	
22.234223	1.845485e-05	2.639223e-05	1.105061e-05	3.071824e-05	
22.235223	1.850091e-05	2.557094e-05	1.119606e-05	3.062398e-05	
22.236223	1.857406e-05	2.477539e-05	1.134931e-05	3.050469e-05	
22.237223	1.867339e-05	2.400607e-05	1.151010e-05	3.036181e-05	
22.238224	1.879796e-05	2.326349e-05	1.167819e-05	3.019674e-05	
22.239224	1.894686e-05	2.254813e-05	1.185330e-05	3.001092e-05	
22.240224	1.911915e-05	2.186049e-05	1.203517e-05	2.980576e-05	
22.241225	1.931392e-05	2.120108e-05	1.222356e-05	2.958269e-05	
22.242225	1.953024e-05	2.057038e-05	1.241819e-05	2.934313e-05	
22.243225	1.976718e-05	1.996891e-05	1.261881e-05	2.908851e-05	
22.244226	2.002382e-05	1.939715e-05	1.282516e-05	2.882024e-05	
22.245226	2.029924e-05	1.885561e-05	1.303697e-05	2.853975e-05	
22.246226	2.059252e-05	1.834477e-05	1.325400e-05	2.824846e-05	
22.247227	2.090272e-05	1.786515e-05	1.347598e-05	2.794779e-05	
22.248227	2.122892e-05	1.741723e-05	1.370265e-05	2.763917e-05	
22.249227	2.157020e-05	1.700152e-05	1.393374e-05	2.732401e-05	
22.250228	2.192564e-05	1.661850e-05	1.416901e-05	2.700375e-05	
22.251228	2.229431e-05	1.626869e-05	1.440820e-05	2.667980e-05	
22.252228	2.267528e-05	1.595258e-05	1.465103e-05	2.635359e-05	
22.253229	2.306764e-05	1.567066e-05	1.489726e-05	2.602654e-05	
22.254229	2.347046e-05	1.542343e-05	1.514662e-05	2.570006e-05	
22.255229	2.388280e-05	1.521139e-05	1.539885e-05	2.537560e-05	
22.256230	2.430376e-05	1.503504e-05	1.565370e-05	2.505455e-05	
22.257230	2.473240e-05	1.489488e-05	1.591090e-05	2.473836e-05	
22.258230	2.516780e-05	1.479140e-05	1.617020e-05	2.442844e-05	
22.259231	2.560904e-05	1.472510e-05	1.643133e-05	2.412621e-05	
22.260231	2.605519e-05	1.469649e-05	1.669404e-05	2.383310e-05	
22.261231	2.650533e-05	1.470604e-05	1.695807e-05	2.355053e-05	
22.262232	2.695853e-05	1.475427e-05	1.722315e-05	2.327993e-05	
22.263232	2.741387e-05	1.484168e-05	1.748903e-05	2.302270e-05	
22.264232	2.787042e-05	1.496875e-05	1.775544e-05	2.278028e-05	
22.265233	2.832727e-05	1.513599e-05	1.802214e-05	2.255410e-05	
22.266233	2.878348e-05	1.534390e-05	1.828885e-05	2.234556e-05	
22.267233	2.923813e-05	1.559297e-05	1.855532e-05	2.215610e-05	
22.268234	2.969030e-05	1.588370e-05	1.882129e-05	2.198714e-05	
22.269234	3.013906e-05	1.621658e-05	1.908650e-05	2.184009e-05	
22.270234	3.058349e-05	1.659213e-05	1.935069e-05	2.171639e-05	
22.271235	3.102266e-05	1.701082e-05	1.961361e-05	2.161745e-05	
22.272235	3.145566e-05	1.747317e-05	1.987498e-05	2.154471e-05	
22.273235	3.188155e-05	1.797967e-05	2.013455e-05	2.149957e-05	
22.274236	3.229941e-05	1.853081e-05	2.039207e-05	2.148346e-05	
22.275236	3.270837e-05	1.912688e-05	2.064723e-05	2.149760e-05	
22.276236	3.310801e-05	1.976618e-05	2.089929e-05	2.154127e-05	
22.277236	3.349817e-05	2.044592e-05	2.114730e-05	2.161270e-05	
22.278237	3.387869e-05	2.116330e-05	2.139030e-05	2.171011e-05	
22.279237	3.424941e-05	2.191553e-05	2.162732e-05	2.183172e-05	
22.280237	3.461016e-05	2.269981e-05	2.185742e-05	2.197575e-05	
22.281238	3.496079e-05	2.351335e-05	2.207962e-05	2.214043e-05	
22.282238	3.530113e-05	2.435336e-05	2.229296e-05	2.232397e-05	
22.283238	3.563102e-05	2.521703e-05	2.249648e-05	2.252461e-05	
22.284239	3.595031e-05	2.610158e-05	2.268923e-05	2.274055e-05	
22.285239	3.625883e-05	2.700420e-05	2.287024e-05	2.297002e-05	
22.286239	3.655642e-05	2.792211e-05	2.303855e-05	2.321124e-05	
22.287240	3.684292e-05	2.885250e-05	2.319320e-05	2.346243e-05	
22.288240	3.711816e-05	2.979259e-05	2.333323e-05	2.372182e-05	
22.289240	3.738200e-05	3.073957e-05	2.345768e-05	2.398763e-05	
22.290241	3.763426e-05	3.169065e-05	2.356558e-05	2.425807e-05	
22.291241	3.787478e-05	3.264303e-05	2.365598e-05	2.453137e-05	
22.292241	3.810341e-05	3.359393e-05	2.372791e-05	2.480574e-05	
22.293242	3.831998e-05	3.454054e-05	2.378042e-05	2.507942e-05	
22.294242	3.852433e-05	3.548007e-05	2.381254e-05	2.535062e-05	
22.295242	3.871630e-05	3.640973e-05	2.382331e-05	2.561757e-05	
22.296243	3.889574e-05	3.732671e-05	2.381177e-05	2.587848e-05	
22.297243	3.906247e-05	3.822823e-05	2.377696e-05	2.613157e-05	
22.298243	3.921634e-05	3.911149e-05	2.371792e-05	2.637508e-05	
22.299244	3.935718e-05	3.997369e-05	2.363369e-05	2.660721e-05	
22.300244	3.948484e-05	4.081204e-05	2.352331e-05	2.682619e-05	
22.301244	3.959916e-05	4.162374e-05	2.338581e-05	2.703024e-05	
22.302245	3.969997e-05	4.240600e-05	2.322023e-05	2.721759e-05	
22.303245	3.978711e-05	4.315602e-05	2.302562e-05	2.738645e-05	
22.304245	3.986042e-05	4.387100e-05	2.280101e-05	2.753505e-05	
22.305246	3.991974e-05	4.454816e-05	2.254545e-05	2.766160e-05	
22.306246	3.996491e-05	4.518469e-05	2.225796e-05	2.776433e-05	
22.307246	3.999577e-05	4.577781e-05	2.193760e-05	2.784146e-05	
22.308247	4.001216e-05	4.632471e-05	2.158339e-05	2.789121e-05	
22.309247	4.001391e-05	4.682260e-05	2.119438e-05	2.791181e-05	
22.310247	4.000087e-05	4.726869e-05	2.076961e-05	2.790147e-05	
22.311248	3.997287e-05	4.766017e-05	2.030812e-05	2.785841e-05	
22.312248	3.992976e-05	4.799426e-05	1.980894e-05	2.778086e-05	
22.313248	3.987136e-05	4.826816e-05	1.927111e-05	2.766703e-05	
22.314249	3.979753e-05	4.847907e-05	1.869368e-05	2.751516e-05	
22.315249	3.970810e-05	4.862420e-05	1.807568e-05	2.732346e-05	
22.316249	3.960291e-05	4.870076e-05	1.741615e-05	2.709014e-05	
22.317250	3.948179e-05	4.870594e-05	1.671413e-05	2.681344e-05	
22.318250	3.934459e-05	4.863695e-05	1.596866e-05	2.649158e-05	
22.319250	3.919115e-05	4.849100e-05	1.517878e-05	2.612277e-05	
22.320250	3.902130e-05	4.826530e-05	1.434353e-05	2.570524e-05	
22.321251	3.883488e-05	4.795704e-05	1.346194e-05	2.523720e-05	
22.322251	3.863174e-05	4.756343e-05	1.253306e-05	2.471689e-05	
22.323251	3.841171e-05	4.708167e-05	1.155592e-05	2.414252e-05	
22.324252	3.817462e-05	4.650898e-05	1.052957e-05	2.351231e-05	
22.325252	3.792042e-05	4.584318e-05	9.453555e-06	2.282490e-05	
22.326252	3.764975e-05	4.508755e-05	8.332021e-06	2.208264e-05	
22.327253	3.736368e-05	4.424823e-05	7.171475e-06	2.128978e-05	
22.328253	3.706325e-05	4.333135e-05	5.978444e-06	2.045061e-05	
22.329253	3.674952e-05	4.234307e-05	4.759459e-06	1.956940e-05	
22.330254	3.642355e-05	4.128954e-05	3.521047e-06	1.865042e-05	
22.331254	3.608640e-05	4.017691e-05	2.269737e-06	1.769795e-05	
22.332254	3.573911e-05	3.901132e-05	1.012060e-06	1.671627e-05	
22.333255	3.538275e-05	3.779893e-05	-2.454573e-07	1.570966e-05	
22.334255	3.501836e-05	3.654587e-05	-1.496285e-06	1.468238e-05	
22.335255	3.464701e-05	3.525831e-05	-2.733894e-06	1.363872e-05	
22.336256	3.426975e-05	3.394238e-05	-3.951755e-06	1.258296e-05	
22.337256	3.388762e-05	3.260425e-05	-5.143340e-06	1.151936e-05	
22.338256	3.350170e-05	3.125005e-05	-6.302120e-06	1.045221e-05	
22.339257	3.311303e-05	2.988593e-05	-7.421566e-06	9.385786e-06	
22.340257	3.272268e-05	2.851805e-05	-8.495148e-06	8.324358e-06	
22.341257	3.233168e-05	2.715254e-05	-9.516338e-06	7.272204e-06	
22.342258	3.194111e-05	2.579557e-05	-1.047861e-05	6.233602e-06	
22.343258	3.155200e-05	2.445328e-05	-1.137543e-05	5.212827e-06	
22.344258	3.116543e-05	2.313181e-05	-1.220026e-05	4.214157e-06	
22.345259	3.078245e-05	2.183732e-05	-1.294660e-05	3.241867e-06	
22.346259	3.040410e-05	2.057596e-05	-1.360789e-05	2.300234e-06	
22.347259	3.003145e-05	1.935387e-05	-1.417762e-05	1.393535e-06	
22.348260	2.966554e-05	1.817720e-05	-1.464925e-05	5.260449e-07	
22.349260	2.930745e-05	1.705210e-05	-1.501626e-05	-2.979591e-07	
22.350260	2.895821e-05	1.598472e-05	-1.527212e-05	-1.074201e-06	
22.351261	2.861889e-05	1.498121e-05	-1.541030e-05	-1.798403e-06	
22.352261	2.829054e-05	1.404771e-05	-1.542426e-05	-2.466291e-06	
22.353261	2.797422e-05	1.319038e-05	-1.530749e-05	-3.073587e-06	
22.354262	2.767097e-05	1.241536e-05	-1.505344e-05	-3.616015e-06	
22.355262	2.738187e-05	1.172880e-05	-1.465560e-05	-4.089299e-06	
22.356262	2.710795e-05	1.113685e-05	-1.410744e-05	-4.489163e-06	
22.357263	2.685028e-05	1.064566e-05	-1.340241e-05	-4.811329e-06	
22.358263	2.660991e-05	1.026138e-05	-1.253401e-05	-5.051522e-06	
22.359263	2.638790e-05	9.990158e-06	-1.149569e-05	-5.205466e-06	
22.360264	2.618530e-05	9.838138e-06	-1.028092e-05	-5.268883e-06	
22.361264	2.600317e-05	9.811471e-06	-8.883190e-06	-5.237497e-06	
22.362264	2.584256e-05	9.916306e-06	-7.295956e-06	-5.107033e-06	
22.363264	2.570452e-05	1.015879e-05	-5.512693e-06	-4.873214e-06	
22.364265	2.559012e-05	1.054507e-05	-3.526872e-06	-4.531763e-06	
22.365265	2.550041e-05	1.108131e-05	-1.331963e-06	-4.078404e-06	
22.366265	2.543644e-05	1.177363e-05	1.078561e-06	-3.508861e-06	
22.367266	2.539927e-05	1.262821e-05	3.711230e-06	-2.818857e-06	
22.368266	2.538995e-05	1.365117e-05	6.572573e-06	-2.004116e-06	
22.369266	2.540953e-05	1.484868e-05	9.669118e-06	-1.060361e-06	
22.370267	2.545908e-05	1.622688e-05	1.300740e-05	1.668324e-08	
22.371267	2.553965e-05	1.779191e-05	1.659393e-05	1.231294e-06	
22.372267	2.565230e-05	1.954994e-05	2.043526e-05	2.587747e-06	
22.373268	2.579807e-05	2.150710e-05	2.453791e-05	4.090319e-06	
22.374268	2.597802e-05	2.366954e-05	2.890840e-05	5.743286e-06	
22.375268	2.619302e-05	2.604227e-05	3.355174e-05	7.550080e-06	
22.376269	2.644228e-05	2.862073e-05	3.846021e-05	9.507099e-06	
22.377269	2.672421e-05	3.139562e-05	4.361975e-05	1.160725e-05	
22.378269	2.703720e-05	3.435760e-05	4.901629e-05	1.384341e-05	
22.379270	2.737967e-05	3.749734e-05	5.463573e-05	1.620847e-05	
22.380270	2.775000e-05	4.080550e-05	6.046400e-05	1.869531e-05	
22.381270	2.814660e-05	4.427276e-05	6.648700e-05	2.129682e-05	
22.382271	2.856788e-05	4.788978e-05	7.269066e-05	2.400586e-05	
22.383271	2.901223e-05	5.164722e-05	7.906088e-05	2.681534e-05	
22.384271	2.947804e-05	5.553575e-05	8.558357e-05	2.971812e-05	
22.385272	2.996374e-05	5.954605e-05	9.224466e-05	3.270710e-05	
22.386272	3.046770e-05	6.366876e-05	9.903005e-05	3.577515e-05	
22.387272	3.098834e-05	6.789457e-05	1.059257e-04	3.891516e-05	
22.388273	3.152405e-05	7.221413e-05	1.129174e-04	4.212001e-05	
22.389273	3.207324e-05	7.661812e-05	1.199912e-04	4.538259e-05	
22.390273	3.263430e-05	8.109720e-05	1.271330e-04	4.869577e-05	
22.391274	3.320564e-05	8.564203e-05	1.343286e-04	5.205243e-05	
22.392274	3.378566e-05	9.024328e-05	1.415640e-04	5.544547e-05	
22.393274	3.437275e-05	9.489162e-05	1.488252e-04	5.886776e-05	
22.394275	3.496532e-05	9.957772e-05	1.560979e-04	6.231219e-05	
22.395275	3.556177e-05	1.042922e-04	1.633682e-04	6.577163e-05	
22.396275	3.616050e-05	1.090258e-04	1.706219e-04	6.923898e-05	
22.397276	3.675991e-05	1.137692e-04	1.778450e-04	7.270711e-05	
22.398276	3.735840e-05	1.185130e-04	1.850233e-04	7.616890e-05	
22.399276	3.795437e-05	1.232478e-04	1.921429e-04	7.961725e-05	
22.400277	3.854622e-05	1.279644e-04	1.991895e-04	8.304502e-05	
22.401277	3.913235e-05	1.326535e-04	2.061492e-04	8.644511e-05	
22.402277	3.971117e-05	1.373056e-04	2.130078e-04	8.981040e-05	
22.403277	4.028107e-05	1.419115e-04	2.197512e-04	9.313377e-05	
22.404278	4.084045e-05	1.464617e-04	2.263654e-04	9.640809e-05	
22.405278	4.138772e-05	1.509471e-04	2.328362e-04	9.962627e-05	
22.406278	4.192127e-05	1.553582e-04	2.391497e-04	1.027812e-04	
22.407279	4.243951e-05	1.596858e-04	2.452916e-04	1.058657e-04	
22.408279	4.294083e-05	1.639204e-04	2.512480e-04	1.088727e-04	
22.409279	4.342364e-05	1.680527e-04	2.570047e-04	1.117950e-04	
22.410280	4.388634e-05	1.720735e-04	2.625476e-04	1.146257e-04	
22.411280	4.432732e-05	1.759734e-04	2.678627e-04	1.173575e-04	
22.412280	4.474500e-05	1.797430e-04	2.729358e-04	1.199833e-04	
22.413281	4.513776e-05	1.833730e-04	2.777530e-04	1.224960e-04	
22.414281	4.550401e-05	1.868541e-04	2.823000e-04	1.248884e-04	
22.415281	4.584216e-05	1.901769e-04	2.865628e-04	1.271536e-04	
22.416282	4.615059e-05	1.933322e-04	2.905274e-04	1.292843e-04	
22.417282	4.642772e-05	1.963105e-04	2.941796e-04	1.312735e-04	
22.418282	4.667193e-05	1.991026e-04	2.975054e-04	1.331139e-04	
22.419283	4.688164e-05	2.016991e-04	3.004906e-04	1.347986e-04	
22.420283	4.705525e-05	2.040907e-04	3.031212e-04	1.363203e-04	
22.421283	4.719114e-05	2.062680e-04	3.053831e-04	1.376720e-04	
22.422284	4.728773e-05	2.082217e-04	3.072622e-04	1.388466e-04	
22.423284	4.734342e-05	2.099425e-04	3.087444e-04	1.398369e-04	
22.424284	4.735660e-05	2.114211e-04	3.098157e-04	1.406358e-04	
22.425285	4.732602e-05	2.126495e-04	3.104645e-04	1.412374e-04	
22.426285	4.725308e-05	2.136318e-04	3.106996e-04	1.416453e-04	
22.427285	4.714047e-05	2.143775e-04	3.105395e-04	1.418675e-04	
22.428286	4.699087e-05	2.148961e-04	3.100026e-04	1.419120e-04	
22.429286	4.680697e-05	2.151972e-04	3.091075e-04	1.417871e-04	
22.430286	4.659145e-05	2.152903e-04	3.078726e-04	1.415007e-04	
22.431287	4.634701e-05	2.151852e-04	3.063164e-04	1.410609e-04	
22.432287	4.607633e-05	2.148912e-04	3.044575e-04	1.404759e-04	
22.433287	4.578209e-05	2.144179e-04	3.023143e-04	1.397537e-04	
22.434288	4.546698e-05	2.137750e-04	2.999053e-04	1.389024e-04	
22.435288	4.513370e-05	2.129720e-04	2.972490e-04	1.379300e-04	
22.436288	4.478492e-05	2.120184e-04	2.943639e-04	1.368447e-04	
22.437289	4.442333e-05	2.109239e-04	2.912685e-04	1.356545e-04	
22.438289	4.405162e-05	2.096979e-04	2.879813e-04	1.343676e-04	
22.439289	4.367248e-05	2.083501e-04	2.845207e-04	1.329919e-04	
22.440290	4.328860e-05	2.068900e-04	2.809053e-04	1.315356e-04	
22.441290	4.290265e-05	2.053272e-04	2.771536e-04	1.300068e-04	
22.442290	4.251733e-05	2.036712e-04	2.732840e-04	1.284136e-04	
22.443291	4.213532e-05	2.019316e-04	2.693151e-04	1.267639e-04	
22.444291	4.175931e-05	2.001180e-04	2.652653e-04	1.250660e-04	
22.445291	4.139199e-05	1.982399e-04	2.611531e-04	1.233279e-04	
22.446291	4.103604e-05	1.963069e-04	2.569971e-04	1.215576e-04	
22.447292	4.069415e-05	1.943286e-04	2.528156e-04	1.197633e-04	
22.448292	4.036901e-05	1.923145e-04	2.486273e-04	1.179531e-04	
22.449292	4.006330e-05	1.902742e-04	2.444506e-04	1.161349e-04	
22.450293	3.977971e-05	1.882173e-04	2.403040e-04	1.143170e-04	
22.451293	3.952093e-05	1.861533e-04	2.362060e-04	1.125074e-04	
22.452293	3.928964e-05	1.840917e-04	2.321750e-04	1.107141e-04	
22.453294	3.908854e-05	1.820422e-04	2.282296e-04	1.089453e-04	
22.454294	3.892030e-05	1.800143e-04	2.243883e-04	1.072090e-04	
22.455294	3.878761e-05	1.780176e-04	2.206696e-04	1.055133e-04	
22.456295	3.869317e-05	1.760617e-04	2.170919e-04	1.038663e-04	
22.457295	3.863965e-05	1.741560e-04	2.136737e-04	1.022761e-04	
22.458295	3.862975e-05	1.723102e-04	2.104336e-04	1.007508e-04	
22.459296	3.866614e-05	1.705339e-04	2.073900e-04	9.929840e-05	
22.460296	3.875153e-05	1.688365e-04	2.045615e-04	9.792704e-05	
22.461296	3.888859e-05	1.672277e-04	2.019664e-04	9.664478e-05	
22.462297	3.908001e-05	1.657170e-04	1.996234e-04	9.545972e-05	
22.463297	3.932848e-05	1.643141e-04	1.975508e-04	9.437993e-05	
22.464297	3.963668e-05	1.630284e-04	1.957673e-04	9.341349e-05	
22.465298	4.000730e-05	1.618695e-04	1.942912e-04	9.256849e-05	
22.466298	4.044303e-05	1.608469e-04	1.931412e-04	9.185301e-05	
22.467298	4.094656e-05	1.599704e-04	1.923356e-04	9.127514e-05	
22.468299	4.152057e-05	1.592493e-04	1.918929e-04	9.084295e-05	
22.469299	4.216774e-05	1.586934e-04	1.918317e-04	9.056452e-05	
22.470299	4.289078e-05	1.583120e-04	1.921705e-04	9.044795e-05	
22.471300	4.369235e-05	1.581149e-04	1.929277e-04	9.050130e-05	
22.472300	4.457515e-05	1.581116e-04	1.941219e-04	9.073267e-05	
22.473300	4.554186e-05	1.583115e-04	1.957715e-04	9.115013e-05	
22.474301	4.659518e-05	1.587244e-04	1.978950e-04	9.176178e-05	
22.475301	4.773718e-05	1.593581e-04	2.005074e-04	9.257423e-05	
22.476301	4.896537e-05	1.602081e-04	2.035983e-04	9.358335e-05	
22.477302	5.027520e-05	1.612641e-04	2.071452e-04	9.478007e-05	
22.478302	5.166211e-05	1.625159e-04	2.111260e-04	9.615532e-05	
22.479302	5.312154e-05	1.639535e-04	2.155181e-04	9.770001e-05	
22.480303	5.464892e-05	1.655664e-04	2.202994e-04	9.940506e-05	
22.481303	5.623970e-05	1.673446e-04	2.254475e-04	1.012614e-04	
22.482303	5.788930e-05	1.692778e-04	2.309401e-04	1.032600e-04	
22.483304	5.959317e-05	1.713559e-04	2.367549e-04	1.053916e-04	
22.484304	6.134674e-05	1.735685e-04	2.428695e-04	1.076474e-04	
22.485304	6.314545e-05	1.759054e-04	2.492616e-04	1.100181e-04	
22.486304	6.498474e-05	1.783566e-04	2.559089e-04	1.124947e-04	
22.487305	6.686004e-05	1.809117e-04	2.627891e-04	1.150681e-04	
22.488305	6.876680e-05	1.835605e-04	2.698799e-04	1.177293e-04	
22.489305	7.070045e-05	1.862929e-04	2.771588e-04	1.204691e-04	
22.490306	7.265642e-05	1.890986e-04	2.846037e-04	1.232785e-04	
22.491306	7.463016e-05	1.919674e-04	2.921922e-04	1.261484e-04	
22.492306	7.661710e-05	1.948891e-04	2.999019e-04	1.290697e-04	
22.493307	7.861268e-05	1.978535e-04	3.077106e-04	1.320334e-04	
22.494307	8.061233e-05	2.008503e-04	3.155959e-04	1.350303e-04	
22.495307	8.261150e-05	2.038694e-04	3.235355e-04	1.380514e-04	
22.496308	8.460562e-05	2.069006e-04	3.315071e-04	1.410876e-04	
22.497308	8.659013e-05	2.099336e-04	3.394883e-04	1.441299e-04	
22.498308	8.856046e-05	2.129582e-04	3.474568e-04	1.471691e-04	
22.499309	9.051206e-05	2.159642e-04	3.553904e-04	1.501962e-04	
22.500309	9.244036e-05	2.189415e-04	3.632666e-04	1.532020e-04	
22.501309	9.434079e-05	2.218797e-04	3.710633e-04	1.561776e-04	
22.502310	9.620880e-05	2.247687e-04	3.787579e-04	1.591138e-04	
22.503310	9.803983e-05	2.275982e-04	3.863283e-04	1.620016e-04	
22.504310	9.982930e-05	2.303581e-04	3.937521e-04	1.648318e-04	
22.505311	1.015727e-04	2.330382e-04	4.010069e-04	1.675955e-04	
22.506311	1.032653e-04	2.356281e-04	4.080705e-04	1.702834e-04	
22.507311	1.049028e-04	2.381178e-04	4.149206e-04	1.728866e-04	
22.508312	1.064804e-04	2.404970e-04	4.215347e-04	1.753960e-04	
22.509312	1.079937e-04	2.427555e-04	4.278907e-04	1.778025e-04	
22.510312	1.094381e-04	2.448831e-04	4.339661e-04	1.800969e-04	
22.511313	1.108089e-04	2.468695e-04	4.397386e-04	1.822703e-04	
22.512313	1.121017e-04	2.487046e-04	4.451860e-04	1.843135e-04	
22.513313	1.133119e-04	2.503781e-04	4.502858e-04	1.862175e-04	
22.514314	1.144350e-04	2.518799e-04	4.550159e-04	1.879732e-04	
22.515314	1.154662e-04	2.531997e-04	4.593538e-04	1.895715e-04	
22.516314	1.164012e-04	2.543273e-04	4.632772e-04	1.910034e-04	
22.517315	1.172353e-04	2.552525e-04	4.667638e-04	1.922597e-04	
22.518315	1.179640e-04	2.559650e-04	4.697914e-04	1.933313e-04	
22.519315	1.185827e-04	2.564548e-04	4.723375e-04	1.942093e-04	
22.520316	1.190869e-04	2.567115e-04	4.743798e-04	1.948845e-04	
22.521316	1.194719e-04	2.567250e-04	4.758961e-04	1.953478e-04	
22.522316	1.197332e-04	2.564850e-04	4.768639e-04	1.955902e-04	
22.523317	1.198663e-04	2.559813e-04	4.772611e-04	1.956025e-04	
22.524317	1.198666e-04	2.552037e-04	4.770652e-04	1.953758e-04	
22.525317	1.197304e-04	2.541439e-04	4.762577e-04	1.949024e-04	
22.526318	1.194599e-04	2.528063e-04	4.748476e-04	1.941862e-04	
22.527318	1.190597e-04	2.512011e-04	4.728552e-04	1.932354e-04	
22.528318	1.185348e-04	2.493385e-04	4.703014e-04	1.920587e-04	
22.529318	1.178899e-04	2.472287e-04	4.672067e-04	1.906646e-04	
22.530319	1.171298e-04	2.448818e-04	4.635918e-04	1.890615e-04	
22.531319	1.162592e-04	2.423079e-04	4.594773e-04	1.872580e-04	
22.532319	1.152829e-04	2.395173e-04	4.548839e-04	1.852626e-04	
22.533320	1.142058e-04	2.365201e-04	4.498322e-04	1.830838e-04	
22.534320	1.130326e-04	2.333265e-04	4.443429e-04	1.807301e-04	
22.535320	1.117680e-04	2.299467e-04	4.384365e-04	1.782100e-04	
22.536321	1.104168e-04	2.263908e-04	4.321338e-04	1.755320e-04	
22.537321	1.089839e-04	2.226689e-04	4.254553e-04	1.727047e-04	
22.538321	1.074740e-04	2.187913e-04	4.184218e-04	1.697365e-04	
22.539322	1.058919e-04	2.147682e-04	4.110538e-04	1.666359e-04	
22.540322	1.042424e-04	2.106096e-04	4.033721e-04	1.634115e-04	
22.541322	1.025302e-04	2.063258e-04	3.953972e-04	1.600718e-04	
22.542323	1.007601e-04	2.019269e-04	3.871498e-04	1.566252e-04	
22.543323	9.893687e-05	1.974231e-04	3.786505e-04	1.530804e-04	
22.544323	9.706536e-05	1.928246e-04	3.699200e-04	1.494457e-04	
22.545324	9.515030e-05	1.881415e-04	3.609789e-04	1.457297e-04	
22.546324	9.319648e-05	1.833839e-04	3.518479e-04	1.419410e-04	
22.547324	9.120868e-05	1.785622e-04	3.425475e-04	1.380879e-04	
22.548325	8.919167e-05	1.736864e-04	3.330986e-04	1.341791e-04	
22.549325	8.715024e-05	1.687667e-04	3.235216e-04	1.302231e-04	
22.550325	8.508915e-05	1.638132e-04	3.138372e-04	1.262283e-04	
22.551326	8.301320e-05	1.588362e-04	3.040662e-04	1.222032e-04	
22.552326	8.092716e-05	1.538458e-04	2.942290e-04	1.181564e-04	
22.553326	7.883580e-05	1.488521e-04	2.843464e-04	1.140964e-04	
22.554327	7.674392e-05	1.438654e-04	2.744390e-04	1.100317e-04	
22.555327	7.465628e-05	1.388958e-04	2.645274e-04	1.059708e-04	
22.556327	7.257766e-05	1.339535e-04	2.546323e-04	1.019221e-04	
22.557328	7.051285e-05	1.290486e-04	2.447744e-04	9.789430e-05	
22.558328	6.846662e-05	1.241913e-04	2.349742e-04	9.389581e-05	
22.559328	6.644376e-05	1.193918e-04	2.252525e-04	8.993514e-05	
22.560329	6.444903e-05	1.146602e-04	2.156298e-04	8.602081e-05	
22.561329	6.248723e-05	1.100067e-04	2.061268e-04	8.216133e-05	
22.562329	6.056312e-05	1.054416e-04	1.967641e-04	7.836521e-05	
22.563330	5.868149e-05	1.009748e-04	1.875624e-04	7.464095e-05	
22.564330	5.684712e-05	9.661671e-05	1.785424e-04	7.099707e-05	
22.565330	5.506478e-05	9.237737e-05	1.697246e-04	6.744208e-05	
22.566331	5.333926e-05	8.826697e-05	1.611297e-04	6.398447e-05	
22.567331	5.167533e-05	8.429570e-05	1.527784e-04	6.063277e-05	
22.568331	5.007777e-05	8.047370e-05	1.446913e-04	5.739548e-05	
22.569331	4.855137e-05	7.681116e-05	1.368890e-04	5.428111e-05	
22.570332	4.710089e-05	7.331824e-05	1.293922e-04	5.129817e-05	
22.571332	4.573112e-05	7.000510e-05	1.222215e-04	4.845517e-05	
22.572332	4.444684e-05	6.688192e-05	1.153976e-04	4.576062e-05	
22.573333	4.325282e-05	6.395886e-05	1.089411e-04	4.322302e-05	
22.574333	4.215385e-05	6.124609e-05	1.028726e-04	4.085089e-05	
22.575333	4.115395e-05	5.875217e-05	9.720985e-05	3.865145e-05	
22.576334	4.025202e-05	5.647488e-05	9.194976e-05	3.662323e-05	
22.577334	3.944484e-05	5.440752e-05	8.708095e-05	3.476118e-05	
22.578334	3.872921e-05	5.254336e-05	8.259197e-05	3.306024e-05	
22.579335	3.810190e-05	5.087571e-05	7.847134e-05	3.151533e-05	
22.580335	3.755970e-05	4.939785e-05	7.470762e-05	3.012139e-05	
22.581335	3.709938e-05	4.810306e-05	7.128933e-05	2.887335e-05	
22.582336	3.671774e-05	4.698464e-05	6.820504e-05	2.776615e-05	
22.583336	3.641155e-05	4.603586e-05	6.544326e-05	2.679472e-05	
22.584336	3.617759e-05	4.525002e-05	6.299255e-05	2.595399e-05	
22.585337	3.601266e-05	4.462041e-05	6.084145e-05	2.523890e-05	
22.586337	3.591352e-05	4.414031e-05	5.897850e-05	2.464439e-05	
22.587337	3.587696e-05	4.380301e-05	5.739223e-05	2.416537e-05	
22.588338	3.589976e-05	4.360180e-05	5.607119e-05	2.379680e-05	
22.589338	3.597872e-05	4.352996e-05	5.500392e-05	2.353360e-05	
22.590338	3.611060e-05	4.358078e-05	5.417896e-05	2.337070e-05	
22.591339	3.629219e-05	4.374755e-05	5.358485e-05	2.330304e-05	
22.592339	3.652027e-05	4.402356e-05	5.321013e-05	2.332556e-05	
22.593339	3.679163e-05	4.440209e-05	5.304335e-05	2.343317e-05	
22.594340	3.710304e-05	4.487643e-05	5.307304e-05	2.362083e-05	
22.595340	3.745130e-05	4.543988e-05	5.328774e-05	2.388347e-05	
22.596340	3.783317e-05	4.608570e-05	5.367600e-05	2.421600e-05	
22.597341	3.824545e-05	4.680721e-05	5.422636e-05	2.461338e-05	
22.598341	3.868491e-05	4.759767e-05	5.492735e-05	2.507053e-05	
22.599341	3.914835e-05	4.845038e-05	5.576752e-05	2.558239e-05	
22.600342	3.963253e-05	4.935863e-05	5.673541e-05	2.614389e-05	
22.601342	4.013424e-05	5.031569e-05	5.781955e-05	2.674997e-05	
22.602342	4.065027e-05	5.131487e-05	5.900850e-05	2.739555e-05	
22.603343	4.117740e-05	5.234945e-05	6.029079e-05	2.807557e-05	
22.604343	4.171241e-05	5.341272e-05	6.165496e-05	2.878497e-05	
22.605343	4.225207e-05	5.449795e-05	6.308955e-05	2.951868e-05	
22.606344	4.279318e-05	5.559845e-05	6.458311e-05	3.027163e-05	
22.607344	4.333252e-05	5.670749e-05	6.612417e-05	3.103875e-05	
22.608344	4.386686e-05	5.781837e-05	6.770128e-05	3.181498e-05	
22.609345	4.439300e-05	5.892437e-05	6.930297e-05	3.259526e-05	
22.610345	4.490771e-05	6.001878e-05	7.091779e-05	3.337451e-05	
22.611345	4.540777e-05	6.109488e-05	7.253428e-05	3.414767e-05	
22.612345	4.588996e-05	6.214597e-05	7.414097e-05	3.490967e-05	
22.613346	4.635108e-05	6.316533e-05	7.572642e-05	3.565546e-05	
22.614346	4.678790e-05	6.414626e-05	7.727915e-05	3.637995e-05	
22.615346	4.719720e-05	6.508202e-05	7.878772e-05	3.707808e-05	
22.616347	4.757577e-05	6.596592e-05	8.024065e-05	3.774479e-05	
22.617347	4.792038e-05	6.679125e-05	8.162650e-05	3.837502e-05	
22.618347	4.822782e-05	6.755128e-05	8.293381e-05	3.896369e-05	
22.619348	4.849488e-05	6.823931e-05	8.415111e-05	3.950573e-05	
22.620348	4.871833e-05	6.884862e-05	8.526694e-05	3.999609e-05	
22.621348	4.889496e-05	6.937250e-05	8.626985e-05	4.042969e-05	
22.622349	4.902154e-05	6.980424e-05	8.714838e-05	4.080147e-05	
22.623349	4.909487e-05	7.013712e-05	8.789106e-05	4.110637e-05	
22.624349	4.911172e-05	7.036444e-05	8.848644e-05	4.133930e-05	
22.625350	4.906940e-05	7.048054e-05	8.892478e-05	4.149599e-05	
22.626350	4.896863e-05	7.048662e-05	8.920728e-05	4.157709e-05	
22.627350	4.881143e-05	7.038654e-05	8.933951e-05	4.158522e-05	
22.628351	4.859986e-05	7.018420e-05	8.932702e-05	4.152298e-05	
22.629351	4.833596e-05	6.988349e-05	8.917537e-05	4.139300e-05	
22.630351	4.802178e-05	6.948829e-05	8.889014e-05	4.119790e-05	
22.631352	4.765937e-05	6.900249e-05	8.847688e-05	4.094029e-05	
22.632352	4.725077e-05	6.842998e-05	8.794115e-05	4.062280e-05	
22.633352	4.679802e-05	6.777464e-05	8.728851e-05	4.024803e-05	
22.634353	4.630318e-05	6.704037e-05	8.652453e-05	3.981862e-05	
22.635353	4.576829e-05	6.623105e-05	8.565477e-05	3.933717e-05	
22.636353	4.519539e-05	6.535056e-05	8.468479e-05	3.880630e-05	
22.637354	4.458653e-05	6.440281e-05	8.362016e-05	3.822864e-05	
22.638354	4.394376e-05	6.339166e-05	8.246643e-05	3.760680e-05	
22.639354	4.326912e-05	6.232102e-05	8.122916e-05	3.694339e-05	
22.640355	4.256467e-05	6.119476e-05	7.991393e-05	3.624105e-05	
22.641355	4.183244e-05	6.001678e-05	7.852629e-05	3.550237e-05	
22.642355	4.107448e-05	5.879096e-05	7.707180e-05	3.472999e-05	
22.643356	4.029284e-05	5.752119e-05	7.555603e-05	3.392651e-05	
22.644356	3.948956e-05	5.621136e-05	7.398454e-05	3.309457e-05	
22.645356	3.866669e-05	5.486536e-05	7.236288e-05	3.223677e-05	
22.646357	3.782628e-05	5.348707e-05	7.069663e-05	3.135574e-05	
22.647357	3.697036e-05	5.208037e-05	6.899135e-05	3.045408e-05	
22.648357	3.610100e-05	5.064917e-05	6.725258e-05	2.953443e-05	
22.649358	3.522023e-05	4.919735e-05	6.548591e-05	2.859939e-05	
22.650358	3.433010e-05	4.772878e-05	6.369689e-05	2.765159e-05	
22.651358	3.343266e-05	4.624737e-05	6.189108e-05	2.669364e-05	
22.652358	3.252995e-05	4.475699e-05	6.007405e-05	2.572817e-05	
22.653359	3.162402e-05	4.326154e-05	5.825135e-05	2.475778e-05	
22.654359	3.071691e-05	4.176491e-05	5.642855e-05	2.378510e-05	
22.655359	2.981067e-05	4.027097e-05	5.461121e-05	2.281275e-05	
22.656360	2.890735e-05	3.878362e-05	5.280490e-05	2.184333e-05	
22.657360	2.800899e-05	3.730675e-05	5.101517e-05	2.087948e-05	
22.658360	2.711764e-05	3.584424e-05	4.924758e-05	1.992381e-05	
22.659361	2.623534e-05	3.439998e-05	4.750771e-05	1.897894e-05	
22.660361	2.536415e-05	3.297786e-05	4.580111e-05	1.804748e-05	
22.661361	2.450610e-05	3.158177e-05	4.413334e-05	1.713205e-05	
22.662362	2.366324e-05	3.021559e-05	4.250997e-05	1.623528e-05	
22.663362	2.283762e-05	2.888321e-05	4.093655e-05	1.535977e-05	
22.664362	2.203129e-05	2.758851e-05	3.941866e-05	1.450815e-05	
22.665363	2.124629e-05	2.633540e-05	3.796184e-05	1.368304e-05	
22.666363	2.048466e-05	2.512774e-05	3.657167e-05	1.288705e-05	
22.667363	1.974846e-05	2.396944e-05	3.525371e-05	1.212280e-05	
22.668364	1.903973e-05	2.286437e-05	3.401351e-05	1.139290e-05	
22.669364	1.836051e-05	2.181643e-05	3.285665e-05	1.069999e-05	
22.670364	1.771285e-05	2.082951e-05	3.178868e-05	1.004667e-05	
22.671365	1.709880e-05	1.990748e-05	3.081516e-05	9.435556e-06	
22.672365	1.652041e-05	1.905424e-05	2.994166e-05	8.869277e-06	
22.673365	1.597971e-05	1.827368e-05	2.917373e-05	8.350447e-06	
22.674366	1.547876e-05	1.756968e-05	2.851695e-05	7.881682e-06	
22.675366	1.501924e-05	1.694544e-05	2.797583e-05	7.465133e-06	
22.676366	1.460066e-05	1.639987e-05	2.754859e-05	7.100094e-06	
22.677367	1.422168e-05	1.593029e-05	2.723105e-05	6.784780e-06	
22.678367	1.388100e-05	1.553403e-05	2.701903e-05	6.517408e-06	
22.679367	1.357728e-05	1.520840e-05	2.690835e-05	6.296192e-06	
22.680368	1.330921e-05	1.495071e-05	2.689484e-05	6.119349e-06	
22.681368	1.307545e-05	1.475829e-05	2.697432e-05	5.985093e-06	
22.682368	1.287468e-05	1.462844e-05	2.714261e-05	5.891639e-06	
22.683369	1.270559e-05	1.455849e-05	2.739553e-05	5.837202e-06	
22.684369	1.256684e-05	1.454576e-05	2.772890e-05	5.819999e-06	
22.685369	1.245711e-05	1.458755e-05	2.813855e-05	5.838243e-06	
22.686370	1.237509e-05	1.468118e-05	2.862030e-05	5.890151e-06	
22.687370	1.231944e-05	1.482398e-05	2.916997e-05	5.973938e-06	
22.688370	1.228884e-05	1.501325e-05	2.978339e-05	6.087818e-06	
22.689371	1.228198e-05	1.524632e-05	3.045637e-05	6.230007e-06	
22.690371	1.229751e-05	1.552049e-05	3.118473e-05	6.398721e-06	
22.691371	1.233413e-05	1.583310e-05	3.196431e-05	6.592174e-06	
22.692372	1.239051e-05	1.618145e-05	3.279092e-05	6.808582e-06	
22.693372	1.246532e-05	1.656286e-05	3.366037e-05	7.046160e-06	
22.694372	1.255724e-05	1.697464e-05	3.456851e-05	7.303123e-06	
22.695372	1.266495e-05	1.741412e-05	3.551114e-05	7.577687e-06	
22.696373	1.278712e-05	1.787861e-05	3.648409e-05	7.868066e-06	
22.697373	1.292243e-05	1.836542e-05	3.748319e-05	8.172476e-06	
22.698373	1.306956e-05	1.887187e-05	3.850425e-05	8.489133e-06	
22.699374	1.322717e-05	1.939529e-05	3.954309e-05	8.816251e-06	
22.700374	1.339396e-05	1.993298e-05	4.059554e-05	9.152045e-06	
22.701374	1.356860e-05	2.048226e-05	4.165742e-05	9.494731e-06	
22.702375	1.374975e-05	2.104045e-05	4.272456e-05	9.842525e-06	
22.703375	1.393610e-05	2.160486e-05	4.379277e-05	1.019364e-05	
22.704375	1.412633e-05	2.217282e-05	4.485787e-05	1.054629e-05	
22.705376	1.431911e-05	2.274163e-05	4.591569e-05	1.089870e-05	
22.706376	1.451311e-05	2.330862e-05	4.696206e-05	1.124907e-05	
22.707376	1.470702e-05	2.387110e-05	4.799278e-05	1.159563e-05	
22.708377	1.489951e-05	2.442638e-05	4.900369e-05	1.193659e-05	
22.709377	1.508925e-05	2.497179e-05	4.999061e-05	1.227016e-05	
22.710377	1.527493e-05	2.550464e-05	5.094936e-05	1.259456e-05	
22.711378	1.545521e-05	2.602224e-05	5.187576e-05	1.290800e-05	
22.712378	1.562879e-05	2.652192e-05	5.276563e-05	1.320870e-05	
22.713378	1.579432e-05	2.700099e-05	5.361479e-05	1.349488e-05	
22.714379	1.595049e-05	2.745676e-05	5.441908e-05	1.376475e-05	
22.715379	1.609597e-05	2.788656e-05	5.517430e-05	1.401652e-05	
22.716379	1.622945e-05	2.828769e-05	5.587628e-05	1.424841e-05	
22.717380	1.634959e-05	2.865749e-05	5.652085e-05	1.445864e-05	
22.718380	1.645508e-05	2.899325e-05	5.710382e-05	1.464542e-05	
22.719380	1.654458e-05	2.929230e-05	5.762102e-05	1.480697e-05	
22.720381	1.661678e-05	2.955195e-05	5.806827e-05	1.494150e-05	
22.721381	1.667036e-05	2.976953e-05	5.844140e-05	1.504722e-05	
22.722381	1.670398e-05	2.994235e-05	5.873621e-05	1.512235e-05	
22.723382	1.671633e-05	3.006771e-05	5.894855e-05	1.516512e-05	
22.724382	1.670608e-05	3.014295e-05	5.907422e-05	1.517372e-05	
22.725382	1.667218e-05	3.016596e-05	5.910995e-05	1.514678e-05	
22.726383	1.661519e-05	3.013803e-05	5.905774e-05	1.508520e-05	
22.727383	1.653621e-05	3.006165e-05	5.892142e-05	1.499071e-05	
22.728383	1.643636e-05	2.993932e-05	5.870489e-05	1.486505e-05	
22.729384	1.631677e-05	2.977354e-05	5.841200e-05	1.470994e-05	
22.730384	1.617856e-05	2.956682e-05	5.804662e-05	1.452712e-05	
22.731384	1.602284e-05	2.932165e-05	5.761263e-05	1.431833e-05	
22.732385	1.585073e-05	2.904054e-05	5.711388e-05	1.408529e-05	
22.733385	1.566335e-05	2.872599e-05	5.655424e-05	1.382975e-05	
22.734385	1.546183e-05	2.838049e-05	5.593759e-05	1.355342e-05	
22.735385	1.524728e-05	2.800655e-05	5.526779e-05	1.325805e-05	
22.736386	1.502081e-05	2.760667e-05	5.454870e-05	1.294537e-05	
22.737386	1.478356e-05	2.718335e-05	5.378420e-05	1.261711e-05	
22.738386	1.453663e-05	2.673909e-05	5.297816e-05	1.227500e-05	
22.739387	1.428116e-05	2.627639e-05	5.213443e-05	1.192078e-05	
22.740387	1.401825e-05	2.579774e-05	5.125689e-05	1.155617e-05	
22.741387	1.374902e-05	2.530566e-05	5.034941e-05	1.118292e-05	
22.742388	1.347460e-05	2.480265e-05	4.941586e-05	1.080276e-05	
22.743388	1.319611e-05	2.429119e-05	4.846009e-05	1.041741e-05	
22.744388	1.291466e-05	2.377380e-05	4.748599e-05	1.002862e-05	
22.745389	1.263137e-05	2.325297e-05	4.649741e-05	9.638102e-06	
22.746389	1.234737e-05	2.273121e-05	4.549823e-05	9.247606e-06	
22.747389	1.206376e-05	2.221101e-05	4.449230e-05	8.858859e-06	
22.748390	1.178168e-05	2.169488e-05	4.348351e-05	8.473595e-06	
22.749390	1.150224e-05	2.118531e-05	4.247572e-05	8.093545e-06	
22.750390	1.122655e-05	2.068481e-05	4.147279e-05	7.720444e-06	
22.751391	1.095575e-05	2.019588e-05	4.047859e-05	7.356023e-06	
22.752391	1.069094e-05	1.972102e-05	3.949700e-05	7.002017e-06	
22.753391	1.043325e-05	1.926273e-05	3.853187e-05	6.660157e-06	
22.754392	1.018380e-05	1.882350e-05	3.758708e-05	6.332176e-06	
22.755392	9.943700e-06	1.840585e-05	3.666649e-05	6.019808e-06	
22.756392	9.714076e-06	1.801226e-05	3.577397e-05	5.724785e-06	
22.757393	9.496046e-06	1.764525e-05	3.491339e-05	5.448841e-06	
22.758393	9.290729e-06	1.730731e-05	3.408862e-05	5.193707e-06	
22.759393	9.099244e-06	1.700094e-05	3.330353e-05	4.961117e-06	
22.760394	8.922711e-06	1.672865e-05	3.256197e-05	4.752804e-06	
22.761394	8.762249e-06	1.649293e-05	3.186782e-05	4.570501e-06	
22.762394	8.618976e-06	1.629628e-05	3.122495e-05	4.415940e-06	
22.763395	8.494013e-06	1.614121e-05	3.063723e-05	4.290855e-06	
22.764395	8.388478e-06	1.603022e-05	3.010852e-05	4.196978e-06	
22.765395	8.303491e-06	1.596580e-05	2.964269e-05	4.136042e-06	
22.766396	8.240171e-06	1.595046e-05	2.924360e-05	4.109780e-06	
22.767396	8.199637e-06	1.598669e-05	2.891513e-05	4.119925e-06	
22.768396	8.183009e-06	1.607701e-05	2.866115e-05	4.168210e-06	
22.769397	8.191405e-06	1.622390e-05	2.848551e-05	4.256367e-06	
22.770397	8.225945e-06	1.642987e-05	2.839210e-05	4.386130e-06	
22.771397	8.287748e-06	1.669742e-05	2.838477e-05	4.559231e-06	
22.772398	8.377933e-06	1.702906e-05	2.846739e-05	4.777404e-06	
22.773398	8.497620e-06	1.742727e-05	2.864384e-05	5.042380e-06	
22.774398	8.647928e-06	1.789457e-05	2.891797e-05	5.355894e-06	
22.775399	8.829679e-06	1.843276e-05	2.929272e-05	5.719202e-06	
22.776399	9.042061e-06	1.903992e-05	2.976579e-05	6.130940e-06	
22.777399	9.283702e-06	1.971279e-05	3.033310e-05	6.588844e-06	
22.778399	9.553227e-06	2.044814e-05	3.099058e-05	7.090650e-06	
22.779400	9.849264e-06	2.124274e-05	3.173414e-05	7.634092e-06	
22.780400	1.017044e-05	2.209334e-05	3.255972e-05	8.216908e-06	
22.781400	1.051538e-05	2.299672e-05	3.346322e-05	8.836831e-06	
22.782401	1.088271e-05	2.394964e-05	3.444058e-05	9.491598e-06	
22.783401	1.127106e-05	2.494885e-05	3.548771e-05	1.017894e-05	
22.784401	1.167905e-05	2.599113e-05	3.660054e-05	1.089661e-05	
22.785402	1.210532e-05	2.707322e-05	3.777498e-05	1.164232e-05	
22.786402	1.254848e-05	2.819191e-05	3.900695e-05	1.241382e-05	
22.787402	1.300717e-05	2.934395e-05	4.029239e-05	1.320883e-05	
22.788403	1.348001e-05	3.052610e-05	4.162721e-05	1.402511e-05	
22.789403	1.396562e-05	3.173513e-05	4.300733e-05	1.486038e-05	
22.790403	1.446264e-05	3.296780e-05	4.442867e-05	1.571237e-05	
22.791404	1.496969e-05	3.422087e-05	4.588716e-05	1.657883e-05	
22.792404	1.548540e-05	3.549112e-05	4.737871e-05	1.745749e-05	
22.793404	1.600839e-05	3.677529e-05	4.889925e-05	1.834608e-05	
22.794405	1.653729e-05	3.807015e-05	5.044470e-05	1.924235e-05	
22.795405	1.707073e-05	3.937247e-05	5.201098e-05	2.014402e-05	
22.796405	1.760733e-05	4.067901e-05	5.359401e-05	2.104883e-05	
22.797406	1.814573e-05	4.198654e-05	5.518971e-05	2.195451e-05	
22.798406	1.868454e-05	4.329181e-05	5.679401e-05	2.285881e-05	
22.799406	1.922239e-05	4.459159e-05	5.840282e-05	2.375946e-05	
22.800407	1.975792e-05	4.588264e-05	6.001207e-05	2.465418e-05	
22.801407	2.028974e-05	4.716173e-05	6.161768e-05	2.554073e-05	
22.802407	2.081648e-05	4.842561e-05	6.321557e-05	2.641683e-05	
22.803408	2.133678e-05	4.967106e-05	6.480166e-05	2.728023e-05	
22.804408	2.184925e-05	5.089484e-05	6.637188e-05	2.812864e-05	
22.805408	2.235252e-05	5.209370e-05	6.792213e-05	2.895982e-05	
22.806409	2.284523e-05	5.326441e-05	6.944836e-05	2.977150e-05	
22.807409	2.332599e-05	5.440374e-05	7.094647e-05	3.056140e-05	
22.808409	2.379343e-05	5.550845e-05	7.241239e-05	3.132728e-05	
22.809410	2.424618e-05	5.657530e-05	7.384204e-05	3.206685e-05	
22.810410	2.468287e-05	5.760105e-05	7.523134e-05	3.277787e-05	
22.811410	2.510212e-05	5.858247e-05	7.657621e-05	3.345806e-05	
22.812411	2.550256e-05	5.951632e-05	7.787258e-05	3.410515e-05	
22.813411	2.588282e-05	6.039937e-05	7.911636e-05	3.471690e-05	
22.814411	2.624152e-05	6.122837e-05	8.030348e-05	3.529102e-05	
22.815412	2.657729e-05	6.200009e-05	8.142986e-05	3.582526e-05	
22.816412	2.688876e-05	6.271130e-05	8.249141e-05	3.631735e-05	
22.817412	2.717454e-05	6.335875e-05	8.348407e-05	3.676503e-05	
22.818412	2.743328e-05	6.393921e-05	8.440375e-05	3.716603e-05	
22.819413	2.766359e-05	6.444945e-05	8.524638e-05	3.751809e-05	
22.820413	2.786411e-05	6.488622e-05	8.600787e-05	3.781895e-05	
22.821413	2.803345e-05	6.524629e-05	8.668415e-05	3.806633e-05	
22.822414	2.817025e-05	6.552643e-05	8.727114e-05	3.825798e-05	
22.823414	2.827313e-05	6.572339e-05	8.776475e-05	3.839162e-05	
22.824414	2.834072e-05	6.583394e-05	8.816092e-05	3.846501e-05	
22.825415	2.837195e-05	6.585562e-05	8.845644e-05	3.847640e-05	
22.826415	2.836738e-05	6.579009e-05	8.865275e-05	3.842689e-05	
22.827415	2.832807e-05	6.564034e-05	8.875278e-05	3.831848e-05	
22.828416	2.825511e-05	6.540937e-05	8.875949e-05	3.815318e-05	
22.829416	2.814956e-05	6.510016e-05	8.867583e-05	3.793301e-05	
22.830416	2.801252e-05	6.471572e-05	8.850472e-05	3.765996e-05	
22.831417	2.784506e-05	6.425904e-05	8.824913e-05	3.733606e-05	
22.832417	2.764824e-05	6.373312e-05	8.791199e-05	3.696331e-05	
22.833417	2.742316e-05	6.314094e-05	8.749626e-05	3.654371e-05	
22.834418	2.717088e-05	6.248551e-05	8.700486e-05	3.607928e-05	
22.835418	2.689248e-05	6.176981e-05	8.644076e-05	3.557202e-05	
22.836418	2.658905e-05	6.099685e-05	8.580690e-05	3.502395e-05	
22.837419	2.626165e-05	6.016961e-05	8.510621e-05	3.443706e-05	
22.838419	2.591136e-05	5.929110e-05	8.434166e-05	3.381339e-05	
22.839419	2.553927e-05	5.836431e-05	8.351617e-05	3.315492e-05	
22.840420	2.514644e-05	5.739222e-05	8.263270e-05	3.246367e-05	
22.841420	2.473395e-05	5.637785e-05	8.169419e-05	3.174165e-05	
22.842420	2.430289e-05	5.532417e-05	8.070358e-05	3.099086e-05	
22.843421	2.385432e-05	5.423419e-05	7.966383e-05	3.021333e-05	
22.844421	2.338933e-05	5.311091e-05	7.857787e-05	2.941104e-05	
22.845421	2.290899e-05	5.195731e-05	7.744865e-05	2.858602e-05	
22.846422	2.241438e-05	5.077639e-05	7.627913e-05	2.774028e-05	
22.847422	2.190658e-05	4.957114e-05	7.507223e-05	2.687581e-05	
22.848422	2.138665e-05	4.834456e-05	7.383091e-05	2.599464e-05	
22.849423	2.085569e-05	4.709965e-05	7.255811e-05	2.509876e-05	
22.850423	2.031476e-05	4.583940e-05	7.125678e-05	2.419019e-05	
22.851423	1.976494e-05	4.456681e-05	6.992986e-05	2.327094e-05	
22.852424	1.920731e-05	4.328486e-05	6.858029e-05	2.234301e-05	
22.853424	1.864295e-05	4.199655e-05	6.721103e-05	2.140842e-05	
22.854424	1.807293e-05	4.070489e-05	6.582502e-05	2.046917e-05	
22.855425	1.749833e-05	3.941285e-05	6.442520e-05	1.952728e-05	
22.856425	1.692023e-05	3.812345e-05	6.301451e-05	1.858474e-05	
22.857425	1.633970e-05	3.683967e-05	6.159591e-05	1.764358e-05	
22.858426	1.575782e-05	3.556450e-05	6.017234e-05	1.670579e-05	
22.859426	1.517567e-05	3.430095e-05	5.874673e-05	1.577340e-05	
22.860426	1.459432e-05	3.305201e-05	5.732205e-05	1.484839e-05	
22.861426	1.401485e-05	3.182066e-05	5.590123e-05	1.393280e-05	
22.862427	1.343834e-05	3.060992e-05	5.448721e-05	1.302862e-05	
22.863427	1.286587e-05	2.942276e-05	5.308295e-05	1.213786e-05	
22.864427	1.229851e-05	2.826219e-05	5.169139e-05	1.126253e-05	
22.865428	1.173733e-05	2.713120e-05	5.031547e-05	1.040465e-05	
22.866428	1.118342e-05	2.603279e-05	4.895814e-05	9.566212e-06	
22.867428	1.063785e-05	2.496994e-05	4.762234e-05	8.749235e-06	
22.868429	1.010170e-05	2.394566e-05	4.631102e-05	7.955726e-06	
22.869429	9.576051e-06	2.296295e-05	4.502713e-05	7.187693e-06	
22.870429	9.061970e-06	2.202478e-05	4.377360e-05	6.447145e-06	
22.871430	8.560539e-06	2.113417e-05	4.255338e-05	5.736091e-06	
22.872430	8.072834e-06	2.029409e-05	4.136943e-05	5.056540e-06	
22.873430	7.599932e-06	1.950756e-05	4.022468e-05	4.410501e-06	
22.874431	7.142909e-06	1.877756e-05	3.912207e-05	3.799983e-06	
22.875431	6.702691e-06	1.810647e-05	3.806405e-05	3.226613e-06	
22.876431	6.279442e-06	1.749355e-05	3.705048e-05	2.690109e-06	
22.877432	5.873087e-06	1.693709e-05	3.608042e-05	2.189598e-06	
22.878432	5.483554e-06	1.643540e-05	3.515295e-05	1.724204e-06	
22.879432	5.110769e-06	1.598677e-05	3.426713e-05	1.293052e-06	
22.880433	4.754659e-06	1.558949e-05	3.342203e-05	8.952671e-07	
22.881433	4.415151e-06	1.524187e-05	3.261672e-05	5.299739e-07	
22.882433	4.092172e-06	1.494220e-05	3.185027e-05	1.962975e-07	
22.883434	3.785647e-06	1.468877e-05	3.112175e-05	-1.066372e-07	
22.884434	3.495505e-06	1.447988e-05	3.043022e-05	-3.797054e-07	
22.885434	3.221671e-06	1.431383e-05	2.977475e-05	-6.237820e-07	
22.886435	2.964071e-06	1.418892e-05	2.915442e-05	-8.397423e-07	
22.887435	2.722634e-06	1.410343e-05	2.856828e-05	-1.028461e-06	
22.888435	2.497286e-06	1.405567e-05	2.801541e-05	-1.190814e-06	
22.889436	2.287952e-06	1.404394e-05	2.749488e-05	-1.327676e-06	
22.890436	2.094561e-06	1.406652e-05	2.700575e-05	-1.439922e-06	
22.891436	1.917038e-06	1.412171e-05	2.654709e-05	-1.528427e-06	
22.892437	1.755310e-06	1.420782e-05	2.611797e-05	-1.594066e-06	
22.893437	1.609304e-06	1.432314e-05	2.571746e-05	-1.637714e-06	
22.894437	1.478947e-06	1.446596e-05	2.534463e-05	-1.660247e-06	
22.895438	1.364165e-06	1.463458e-05	2.499854e-05	-1.662539e-06	
22.896438	1.264885e-06	1.482730e-05	2.467827e-05	-1.645466e-06	
22.897438	1.181034e-06	1.504240e-05	2.438288e-05	-1.609903e-06	
22.898439	1.112539e-06	1.527820e-05	2.411144e-05	-1.556724e-06	
22.899439	1.059325e-06	1.553299e-05	2.386302e-05	-1.486806e-06	
22.900439	1.021320e-06	1.580505e-05	2.363668e-05	-1.401022e-06	
22.901439	9.984506e-07	1.609269e-05	2.343150e-05	-1.300248e-06	
22.902440	9.906432e-07	1.639421e-05	2.324654e-05	-1.185360e-06	
22.903440	9.978247e-07	1.670789e-05	2.308088e-05	-1.057232e-06	
22.904440	1.019922e-06	1.703205e-05	2.293357e-05	-9.167388e-07	
22.905441	1.056861e-06	1.736496e-05	2.280369e-05	-7.647565e-07	
22.906441	1.108569e-06	1.770494e-05	2.269030e-05	-6.021597e-07	
22.907441	1.174973e-06	1.805027e-05	2.259249e-05	-4.298236e-07	
22.908442	1.255998e-06	1.839925e-05	2.250930e-05	-2.486233e-07	
22.909442	1.351573e-06	1.875018e-05	2.243981e-05	-5.943386e-08	
22.910442	1.461624e-06	1.910135e-05	2.238310e-05	1.368696e-07	
22.911443	1.586076e-06	1.945106e-05	2.233822e-05	3.394121e-07	
22.912443	1.724858e-06	1.979761e-05	2.230424e-05	5.473184e-07	
22.913443	1.877895e-06	2.013929e-05	2.228024e-05	7.597134e-07	
22.914444	2.045115e-06	2.047441e-05	2.226529e-05	9.757221e-07	
22.915444	2.226444e-06	2.080124e-05	2.225844e-05	1.194469e-06	
22.916444	2.421808e-06	2.111810e-05	2.225877e-05	1.415080e-06	
22.917445	2.631135e-06	2.142328e-05	2.226535e-05	1.636679e-06	
22.918445	2.854351e-06	2.171507e-05	2.227724e-05	1.858391e-06	
22.919445	3.091383e-06	2.199177e-05	2.229352e-05	2.079342e-06	
22.920446	3.342157e-06	2.225167e-05	2.231325e-05	2.298655e-06	
22.921446	3.606601e-06	2.249308e-05	2.233549e-05	2.515457e-06	
22.922446	3.884640e-06	2.271429e-05	2.235933e-05	2.728871e-06	
22.923447	4.176202e-06	2.291359e-05	2.238382e-05	2.938024e-06	
22.924447	4.481213e-06	2.308929e-05	2.240804e-05	3.142038e-06	
22.925447	4.799526e-06	2.324002e-05	2.243116e-05	3.340174e-06	
22.926448	5.130647e-06	2.336603e-05	2.245286e-05	3.532322e-06	
22.927448	5.473975e-06	2.346808e-05	2.247300e-05	3.718561e-06	
22.928448	5.828912e-06	2.354692e-05	2.249140e-05	3.898971e-06	
22.929449	6.194859e-06	2.360327e-05	2.250790e-05	4.073631e-06	
22.930449	6.571216e-06	2.363790e-05	2.252235e-05	4.242621e-06	
22.931449	6.957384e-06	2.365154e-05	2.253459e-05	4.406020e-06	
22.932450	7.352764e-06	2.364494e-05	2.254445e-05	4.563908e-06	
22.933450	7.756756e-06	2.361884e-05	2.255177e-05	4.716363e-06	
22.934450	8.168763e-06	2.357398e-05	2.255639e-05	4.863466e-06	
22.935451	8.588183e-06	2.351112e-05	2.255816e-05	5.005295e-06	
22.936451	9.014420e-06	2.343099e-05	2.255690e-05	5.141931e-06	
22.937451	9.446872e-06	2.333435e-05	2.255247e-05	5.273452e-06	
22.938452	9.884941e-06	2.322192e-05	2.254470e-05	5.399938e-06	
22.939452	1.032803e-05	2.309447e-05	2.253342e-05	5.521468e-06	
22.940452	1.077553e-05	2.295273e-05	2.251849e-05	5.638122e-06	
22.941453	1.122686e-05	2.279745e-05	2.249973e-05	5.749979e-06	
22.942453	1.168140e-05	2.262937e-05	2.247699e-05	5.857119e-06	
22.943453	1.213857e-05	2.244924e-05	2.245010e-05	5.959621e-06	
22.944453	1.259776e-05	2.225779e-05	2.241891e-05	6.057563e-06	
22.945454	1.305837e-05	2.205579e-05	2.238326e-05	6.151027e-06	
22.946454	1.351980e-05	2.184396e-05	2.234297e-05	6.240091e-06	
22.947454	1.398146e-05	2.162306e-05	2.229791e-05	6.324834e-06	
22.948455	1.444275e-05	2.139382e-05	2.224789e-05	6.405337e-06	
22.949455	1.490306e-05	2.115700e-05	2.219277e-05	6.481678e-06	
22.950455	1.536180e-05	2.091334e-05	2.213238e-05	6.553936e-06	
22.951456	1.581836e-05	2.066358e-05	2.206655e-05	6.622192e-06	
22.952456	1.627215e-05	2.040846e-05	2.199514e-05	6.686524e-06	
22.953456	1.672258e-05	2.014874e-05	2.191798e-05	6.747012e-06	
22.954457	1.716903e-05	1.988515e-05	2.183491e-05	6.803736e-06	
22.955457	1.761092e-05	1.961844e-05	2.174576e-05	6.856774e-06	
22.956457	1.804763e-05	1.934936e-05	2.165038e-05	6.906207e-06	
22.957458	1.847858e-05	1.907864e-05	2.154861e-05	6.952113e-06	
22.958458	1.890316e-05	1.880704e-05	2.144029e-05	6.994573e-06	
22.959458	1.932078e-05	1.853529e-05	2.132525e-05	7.033664e-06	
22.960459	1.973083e-05	1.826415e-05	2.120333e-05	7.069468e-06	
22.961459	2.013272e-05	1.799435e-05	2.107438e-05	7.102063e-06	
22.962459	2.052585e-05	1.772664e-05	2.093823e-05	7.131528e-06	
22.963460	2.090961e-05	1.746177e-05	2.079472e-05	7.157943e-06	
22.964460	2.128341e-05	1.720048e-05	2.064369e-05	7.181388e-06	
22.965460	2.164665e-05	1.694351e-05	2.048499e-05	7.201942e-06	
22.966461	2.199873e-05	1.669161e-05	2.031845e-05	7.219684e-06	
22.967461	2.233905e-05	1.644552e-05	2.014390e-05	7.234694e-06	
22.968461	2.266702e-05	1.620599e-05	1.996120e-05	7.247050e-06	
22.969462	2.298202e-05	1.597376e-05	1.977017e-05	7.256833e-06	
22.970462	2.328347e-05	1.574958e-05	1.957066e-05	7.264122e-06	
22.971462	2.357077e-05	1.553419e-05	1.936251e-05	7.268997e-06	
22.972463	2.384331e-05	1.532833e-05	1.914555e-05	7.271536e-06	
22.973463	2.410049e-05	1.513276e-05	1.891963e-05	7.271819e-06	
22.974463	2.434172e-05	1.494820e-05	1.868458e-05	7.269925e-06	
22.975464	2.456653e-05	1.477526e-05	1.844035e-05	7.265952e-06	
22.976464	2.477499e-05	1.461380e-05	1.818729e-05	7.260077e-06	
22.977464	2.496736e-05	1.446348e-05	1.792590e-05	7.252498e-06	
22.978465	2.514388e-05	1.432397e-05	1.765668e-05	7.243415e-06	
22.979465	2.530480e-05	1.419495e-05	1.738011e-05	7.233028e-06	
22.980465	2.545036e-05	1.407606e-05	1.709668e-05	7.221536e-06	
22.981466	2.558082e-05	1.396700e-05	1.680689e-05	7.209138e-06	
22.982466	2.569641e-05	1.386741e-05	1.651123e-05	7.196034e-06	
22.983466	2.579738e-05	1.377696e-05	1.621019e-05	7.182423e-06	
22.984466	2.588399e-05	1.369533e-05	1.590426e-05	7.168504e-06	
22.985467	2.595647e-05	1.362218e-05	1.559393e-05	7.154477e-06	
22.986467	2.601508e-05	1.355717e-05	1.527970e-05	7.140542e-06	
22.987467	2.606005e-05	1.349998e-05	1.496206e-05	7.126897e-06	
22.988468	2.609164e-05	1.345026e-05	1.464149e-05	7.113743e-06	
22.989468	2.611009e-05	1.340769e-05	1.431849e-05	7.101278e-06	
22.990468	2.611565e-05	1.337194e-05	1.399356e-05	7.089702e-06	
22.991469	2.610856e-05	1.334266e-05	1.366718e-05	7.079214e-06	
22.992469	2.608907e-05	1.331952e-05	1.333984e-05	7.070014e-06	
22.993469	2.605744e-05	1.330220e-05	1.301203e-05	7.062301e-06	
22.994470	2.601389e-05	1.329036e-05	1.268426e-05	7.056274e-06	
22.995470	2.595869e-05	1.328366e-05	1.235700e-05	7.052134e-06	
22.996470	2.589207e-05	1.328177e-05	1.203076e-05	7.050078e-06	
22.997471	2.581428e-05	1.328436e-05	1.170602e-05	7.050307e-06	
22.998471	2.572558e-05	1.329110e-05	1.138327e-05	7.053021e-06	
22.999471	2.562620e-05	1.330165e-05	1.106301e-05	7.058418e-06	
23.000472	2.551639e-05	1.331567e-05	1.074572e-05	7.066697e-06	
23.001472	2.539640e-05	1.333285e-05	1.043191e-05	7.078059e-06	
23.002472	2.526647e-05	1.335283e-05	1.012205e-05	7.092703e-06	
23.003473	2.512685e-05	1.337529e-05	9.816648e-06	7.110828e-06	
23.004473	2.497779e-05	1.339990e-05	9.516189e-06	7.132633e-06	
23.005473	2.481954e-05	1.342631e-05	9.221164e-06	7.158318e-06	
23.006474	2.465234e-05	1.345421e-05	8.932067e-06	7.188082e-06	
23.007474	2.447643e-05	1.348325e-05	8.649388e-06	7.222125e-06	
23.008474	2.429206e-05	1.351310e-05	8.373620e-06	7.260646e-06	
23.009475	2.409948e-05	1.354343e-05	8.105253e-06	7.303844e-06	
23.010475	2.389894e-05	1.357390e-05	7.844779e-06	7.351919e-06	
23.011475	2.369068e-05	1.360419e-05	7.592690e-06	7.405071e-06	
23.012476	2.347495e-05	1.363395e-05	7.349478e-06	7.463498e-06	
23.013476	2.325200e-05	1.366285e-05	7.115634e-06	7.527400e-06	
23.014476	2.302206e-05	1.369057e-05	6.891650e-06	7.596977e-06	
23.015477	2.278539e-05	1.371677e-05	6.678017e-06	7.672427e-06	
23.016477	2.254224e-05	1.374111e-05	6.475228e-06	7.753951e-06	
23.017477	2.229284e-05	1.376326e-05	6.283772e-06	7.841747e-06	
23.018478	2.203745e-05	1.378288e-05	6.104143e-06	7.936015e-06	
23.019478	2.177632e-05	1.379966e-05	5.936832e-06	8.036955e-06	
23.020478	2.150968e-05	1.381324e-05	5.782330e-06	8.144765e-06	
23.021479	2.123779e-05	1.382330e-05	5.641129e-06	8.259646e-06	
23.022479	2.096089e-05	1.382950e-05	5.513721e-06	8.381796e-06	
23.023479	2.067923e-05	1.383152e-05	5.400597e-06	8.511415e-06	
23.024480	2.039305e-05	1.382901e-05	5.302248e-06	8.648703e-06	
23.025480	2.010261e-05	1.382171e-05	5.219010e-06	8.793832e-06	
23.026480	1.980816e-05	1.380968e-05	5.150538e-06	8.946863e-06	
23.027480	1.950998e-05	1.379304e-05	5.096305e-06	9.107825e-06	
23.028481	1.920832e-05	1.377192e-05	5.055784e-06	9.276746e-06	
23.029481	1.890346e-05	1.374644e-05	5.028448e-06	9.453658e-06	
23.030481	1.859566e-05	1.371674e-05	5.013771e-06	9.638589e-06	
23.031482	1.828519e-05	1.368295e-05	5.011226e-06	9.831568e-06	
23.032482	1.797231e-05	1.364519e-05	5.020285e-06	1.003262e-05	
23.033482	1.765729e-05	1.360359e-05	5.040422e-06	1.024179e-05	
23.034483	1.734040e-05	1.355829e-05	5.071110e-06	1.045909e-05	
23.035483	1.702190e-05	1.350941e-05	5.111822e-06	1.068456e-05	
23.036483	1.670205e-05	1.345707e-05	5.162032e-06	1.091822e-05	
23.037484	1.638113e-05	1.340142e-05	5.221212e-06	1.116011e-05	
23.038484	1.605940e-05	1.334257e-05	5.288835e-06	1.141025e-05	
23.039484	1.573713e-05	1.328066e-05	5.364375e-06	1.166868e-05	
23.040485	1.541458e-05	1.321581e-05	5.447304e-06	1.193542e-05	
23.041485	1.509201e-05	1.314816e-05	5.537097e-06	1.221050e-05	
23.042485	1.476970e-05	1.307783e-05	5.633225e-06	1.249395e-05	
23.043486	1.444792e-05	1.300495e-05	5.735162e-06	1.278581e-05	
23.044486	1.412692e-05	1.292966e-05	5.842382e-06	1.308610e-05	
23.045486	1.380697e-05	1.285207e-05	5.954356e-06	1.339485e-05	
23.046487	1.348834e-05	1.277232e-05	6.070560e-06	1.371208e-05	
23.047487	1.317130e-05	1.269054e-05	6.190465e-06	1.403784e-05	
23.048487	1.285611e-05	1.260686e-05	6.313544e-06	1.437214e-05	
23.049488	1.254303e-05	1.252140e-05	6.439271e-06	1.471503e-05	
23.050488	1.223234e-05	1.243429e-05	6.567120e-06	1.506652e-05	
23.051488	1.192430e-05	1.234567e-05	6.696562e-06	1.542664e-05	
23.052489	1.161918e-05	1.225565e-05	6.827071e-06	1.579544e-05	
23.053489	1.131724e-05	1.216438e-05	6.958121e-06	1.617292e-05	
23.054489	1.101874e-05	1.207198e-05	7.089184e-06	1.655914e-05	
23.055490	1.072396e-05	1.197857e-05	7.219734e-06	1.695411e-05	
23.056490	1.043316e-05	1.188430e-05	7.349243e-06	1.735786e-05	
23.057490	1.014661e-05	1.178928e-05	7.477185e-06	1.777043e-05	
23.058491	9.864573e-06	1.169364e-05	7.603033e-06	1.819183e-05	
23.059491	9.587313e-06	1.159752e-05	7.726260e-06	1.862211e-05	
23.060491	9.315097e-06	1.150103e-05	7.846339e-06	1.906130e-05	
23.061492	9.048193e-06	1.140433e-05	7.962743e-06	1.950941e-05	
23.062492	8.786866e-06	1.130752e-05	8.074946e-06	1.996648e-05	
23.063492	8.531383e-06	1.121074e-05	8.182420e-06	2.043255e-05	
23.064493	8.282009e-06	1.111411e-05	8.284639e-06	2.090763e-05	
23.065493	8.039011e-06	1.101778e-05	8.381076e-06	2.139176e-05	
23.066493	7.802655e-06	1.092186e-05	8.471203e-06	2.188497e-05	
23.067493	7.573207e-06	1.082648e-05	8.554495e-06	2.238729e-05	
23.068494	7.350933e-06	1.073178e-05	8.630423e-06	2.289874e-05	
23.069494	7.136100e-06	1.063788e-05	8.698462e-06	2.341936e-05	
23.070494	6.928972e-06	1.054491e-05	8.758084e-06	2.394917e-05	
23.071495	6.729818e-06	1.045300e-05	8.808763e-06	2.448822e-05	
23.072495	6.538902e-06	1.036228e-05	8.849971e-06	2.503651e-05	
23.073495	6.356491e-06	1.027288e-05	8.881182e-06	2.559409e-05	
23.074496	6.182851e-06	1.018493e-05	8.901869e-06	2.616098e-05	
23.075496	6.018176e-06	1.009852e-05	8.911647e-06	2.673713e-05	
23.076496	5.862365e-06	1.001366e-05	8.910719e-06	2.732208e-05	
23.077497	5.715244e-06	9.930310e-06	8.899437e-06	2.791531e-05	
23.078497	5.576634e-06	9.848445e-06	8.878154e-06	2.851627e-05	
23.079497	5.446360e-06	9.768030e-06	8.847221e-06	2.912444e-05	
23.080498	5.324245e-06	9.689035e-06	8.806992e-06	2.973927e-05	
23.081498	5.210113e-06	9.611427e-06	8.757818e-06	3.036023e-05	
23.082498	5.103789e-06	9.535175e-06	8.700053e-06	3.098678e-05	
23.083499	5.005094e-06	9.460247e-06	8.634047e-06	3.161838e-05	
23.084499	4.913854e-06	9.386612e-06	8.560155e-06	3.225450e-05	
23.085499	4.829892e-06	9.314239e-06	8.478727e-06	3.289460e-05	
23.086500	4.753032e-06	9.243096e-06	8.390117e-06	3.353814e-05	
23.087500	4.683096e-06	9.173151e-06	8.294677e-06	3.418459e-05	
23.088500	4.619910e-06	9.104372e-06	8.192760e-06	3.483341e-05	
23.089501	4.563296e-06	9.036729e-06	8.084717e-06	3.548406e-05	
23.090501	4.513079e-06	8.970189e-06	7.970901e-06	3.613601e-05	
23.091501	4.469082e-06	8.904722e-06	7.851665e-06	3.678872e-05	
23.092502	4.431129e-06	8.840295e-06	7.727360e-06	3.744165e-05	
23.093502	4.399043e-06	8.776877e-06	7.598340e-06	3.809427e-05	
23.094502	4.372648e-06	8.714436e-06	7.464956e-06	3.874604e-05	
23.095503	4.351768e-06	8.652942e-06	7.327562e-06	3.939642e-05	
23.096503	4.336226e-06	8.592361e-06	7.186509e-06	4.004487e-05	
23.097503	4.325847e-06	8.532664e-06	7.042150e-06	4.069087e-05	
23.098504	4.320454e-06	8.473818e-06	6.894837e-06	4.133386e-05	
23.099504	4.319870e-06	8.415791e-06	6.744922e-06	4.197333e-05	
23.100504	4.323920e-06	8.358553e-06	6.592759e-06	4.260872e-05	
23.101505	4.332426e-06	8.302072e-06	6.438699e-06	4.323950e-05	
23.102505	4.345214e-06	8.246315e-06	6.283094e-06	4.386514e-05	
23.103505	4.362105e-06	8.191253e-06	6.126298e-06	4.448510e-05	
23.104506	4.382925e-06	8.136852e-06	5.968662e-06	4.509884e-05	
23.105506	4.407496e-06	8.083082e-06	5.810540e-06	4.570582e-05	
23.106506	4.435643e-06	8.029910e-06	5.652282e-06	4.630551e-05	
23.107507	4.467190e-06	7.977306e-06	5.494242e-06	4.689738e-05	
23.108507	4.501959e-06	7.925238e-06	5.336773e-06	4.748088e-05	
23.109507	4.539774e-06	7.873674e-06	5.180225e-06	4.805548e-05	
23.110507	4.580460e-06	7.822583e-06	5.024953e-06	4.862064e-05	
23.111508	4.623840e-06	7.771933e-06	4.871308e-06	4.917582e-05	
23.112508	4.669737e-06	7.721693e-06	4.719643e-06	4.972049e-05	
23.113508	4.717976e-06	7.671831e-06	4.570309e-06	5.025411e-05	
23.114509	4.768380e-06	7.622316e-06	4.423660e-06	5.077615e-05	
23.115509	4.820772e-06	7.573115e-06	4.280048e-06	5.128606e-05	
23.116509	4.874977e-06	7.524198e-06	4.139825e-06	5.178332e-05	
23.117510	4.930818e-06	7.475534e-06	4.003344e-06	5.226738e-05	
23.118510	4.988119e-06	7.427089e-06	3.870956e-06	5.273770e-05	
23.119510	5.046703e-06	7.378833e-06	3.743015e-06	5.319376e-05	
23.120511	5.106394e-06	7.330735e-06	3.619873e-06	5.363501e-05	
23.121511	5.167016e-06	7.282762e-06	3.501882e-06	5.406092e-05	
23.122511	5.228393e-06	7.234884e-06	3.389394e-06	5.447095e-05	
23.123512	5.290348e-06	7.187068e-06	3.282762e-06	5.486456e-05	
23.124512	5.352705e-06	7.139284e-06	3.182339e-06	5.524122e-05	
23.125512	5.415306e-06	7.091508e-06	3.088387e-06	5.560052e-05	
23.126513	5.478062e-06	7.043754e-06	3.000826e-06	5.594257e-05	
23.127513	5.540903e-06	6.996045e-06	2.919488e-06	5.626762e-05	
23.128513	5.603758e-06	6.948401e-06	2.844206e-06	5.657589e-05	
23.129514	5.666556e-06	6.900845e-06	2.774814e-06	5.686762e-05	
23.130514	5.729226e-06	6.853399e-06	2.711145e-06	5.714306e-05	
23.131514	5.791697e-06	6.806085e-06	2.653033e-06	5.740244e-05	
23.132515	5.853898e-06	6.758925e-06	2.600309e-06	5.764599e-05	
23.133515	5.915759e-06	6.711942e-06	2.552809e-06	5.787395e-05	
23.134515	5.977208e-06	6.665156e-06	2.510364e-06	5.808657e-05	
23.135516	6.038175e-06	6.618590e-06	2.472808e-06	5.828407e-05	
23.136516	6.098589e-06	6.572266e-06	2.439974e-06	5.846670e-05	
23.137516	6.158378e-06	6.526206e-06	2.411697e-06	5.863469e-05	
23.138517	6.217473e-06	6.480432e-06	2.387808e-06	5.878828e-05	
23.139517	6.275802e-06	6.434966e-06	2.368140e-06	5.892771e-05	
23.140517	6.333294e-06	6.389830e-06	2.352529e-06	5.905321e-05	
23.141518	6.389879e-06	6.345046e-06	2.340805e-06	5.916502e-05	
23.142518	6.445485e-06	6.300636e-06	2.332804e-06	5.926337e-05	
23.143518	6.500042e-06	6.256622e-06	2.328357e-06	5.934852e-05	
23.144519	6.553479e-06	6.213026e-06	2.327299e-06	5.942068e-05	
23.145519	6.605725e-06	6.169870e-06	2.329462e-06	5.948010e-05	
23.146519	6.656708e-06	6.127175e-06	2.334679e-06	5.952702e-05	
23.147520	6.706359e-06	6.084965e-06	2.342785e-06	5.956168e-05	
23.148520	6.754606e-06	6.043261e-06	2.353612e-06	5.958430e-05	
23.149520	6.801379e-06	6.002084e-06	2.366993e-06	5.959513e-05	
23.150520	6.846606e-06	5.961458e-06	2.382761e-06	5.959441e-05	
23.151521	6.890217e-06	5.921403e-06	2.400751e-06	5.958237e-05	
23.152521	6.932140e-06	5.881943e-06	2.420794e-06	5.955925e-05	
23.153521	6.972306e-06	5.843098e-06	2.442725e-06	5.952529e-05	
23.154522	7.010642e-06	5.804891e-06	2.466376e-06	5.948072e-05	
23.155522	7.047079e-06	5.767345e-06	2.491581e-06	5.942578e-05	
23.156522	7.081545e-06	5.730480e-06	2.518173e-06	5.936071e-05	
23.157523	7.113969e-06	5.694319e-06	2.545985e-06	5.928574e-05	
23.158523	7.144281e-06	5.658884e-06	2.574851e-06	5.920112e-05	
23.159523	7.172410e-06	5.624197e-06	2.604603e-06	5.910708e-05	
23.160524	7.198284e-06	5.590280e-06	2.635075e-06	5.900385e-05	
23.161524	7.221834e-06	5.557155e-06	2.666101e-06	5.889168e-05	
23.162524	7.242987e-06	5.524843e-06	2.697512e-06	5.877080e-05	
23.163525	7.261673e-06	5.493368e-06	2.729144e-06	5.864144e-05	
23.164525	7.277822e-06	5.462750e-06	2.760828e-06	5.850386e-05	
23.165525	7.291362e-06	5.433013e-06	2.792398e-06	5.835827e-05	
23.166526	7.302223e-06	5.404177e-06	2.823688e-06	5.820493e-05	
23.167526	7.310333e-06	5.376266e-06	2.854530e-06	5.804406e-05	
23.168526	7.315622e-06	5.349300e-06	2.884758e-06	5.787591e-05	
23.169527	7.318019e-06	5.323302e-06	2.914204e-06	5.770070e-05	
23.170527	7.317453e-06	5.298294e-06	2.942704e-06	5.751869e-05	
23.171527	7.313854e-06	5.274298e-06	2.970088e-06	5.733010e-05	
23.172528	7.307149e-06	5.251335e-06	2.996191e-06	5.713518e-05	
23.173528	7.297269e-06	5.229429e-06	3.020847e-06	5.693415e-05	
23.174528	7.284142e-06	5.208600e-06	3.043887e-06	5.672726e-05	
23.175529	7.267734e-06	5.188877e-06	3.065182e-06	5.651488e-05	
23.176529	7.248142e-06	5.170307e-06	3.084741e-06	5.629781e-05	
23.177529	7.225495e-06	5.152943e-06	3.102601e-06	5.607699e-05	
23.178530	7.199922e-06	5.136836e-06	3.118803e-06	5.585336e-05	
23.179530	7.171551e-06	5.122040e-06	3.133385e-06	5.562785e-05	
23.180530	7.140512e-06	5.108608e-06	3.146388e-06	5.540138e-05	
23.181531	7.106933e-06	5.096590e-06	3.157850e-06	5.517489e-05	
23.182531	7.070943e-06	5.086041e-06	3.167811e-06	5.494931e-05	
23.183531	7.032671e-06	5.077012e-06	3.176310e-06	5.472556e-05	
23.184532	6.992246e-06	5.069556e-06	3.183387e-06	5.450459e-05	
23.185532	6.949796e-06	5.063725e-06	3.189081e-06	5.428731e-05	
23.186532	6.905451e-06	5.059573e-06	3.193431e-06	5.407467e-05	
23.187533	6.859339e-06	5.057150e-06	3.196478e-06	5.386760e-05	
23.188533	6.811588e-06	5.056511e-06	3.198259e-06	5.366701e-05	
23.189533	6.762328e-06	5.057707e-06	3.198814e-06	5.347386e-05	
23.190534	6.711688e-06	5.060791e-06	3.198184e-06	5.328906e-05	
23.191534	6.659797e-06	5.065815e-06	3.196406e-06	5.311354e-05	
23.192534	6.606782e-06	5.072831e-06	3.193522e-06	5.294825e-05	
23.193534	6.552773e-06	5.081894e-06	3.189569e-06	5.279410e-05	
23.194535	6.497900e-06	5.093053e-06	3.184588e-06	5.265204e-05	
23.195535	6.442289e-06	5.106364e-06	3.178617e-06	5.252299e-05	
23.196535	6.386072e-06	5.121876e-06	3.171696e-06	5.240788e-05	
23.197536	6.329375e-06	5.139644e-06	3.163865e-06	5.230764e-05	
23.198536	6.272329e-06	5.159720e-06	3.155163e-06	5.222321e-05	
23.199536	6.215061e-06	5.182156e-06	3.145628e-06	5.215552e-05	
23.200537	6.157701e-06	5.207004e-06	3.135302e-06	5.210549e-05	
23.201537	6.100377e-06	5.234318e-06	3.124222e-06	5.207406e-05	
23.202537	6.043219e-06	5.264149e-06	3.112428e-06	5.206215e-05	
23.203538	5.986355e-06	5.296550e-06	3.099960e-06	5.207071e-05	
23.204538	5.929914e-06	5.331574e-06	3.086858e-06	5.210066e-05	
23.205538	5.874024e-06	5.369273e-06	3.073159e-06	5.215293e-05	
23.206539	5.818815e-06	5.409699e-06	3.058905e-06	5.222846e-05	
23.207539	5.764415e-06	5.452906e-06	3.044133e-06	5.232817e-05	
23.208539	5.710953e-06	5.498945e-06	3.028884e-06	5.245299e-05	
23.209540	5.658559e-06	5.547868e-06	3.013197e-06	5.260386e-05	
23.210540	5.607360e-06	5.599730e-06	2.997111e-06	5.278171e-05	
23.211540	5.557486e-06	5.654581e-06	2.980666e-06	5.298746e-05	
23.212541	5.509065e-06	5.712475e-06	2.963901e-06	5.322206e-05	
23.213541	5.462226e-06	5.773463e-06	2.946855e-06	5.348642e-05	
23.214541	5.417098e-06	5.837599e-06	2.929568e-06	5.378149e-05	
23.215542	5.373810e-06	5.904935e-06	2.912078e-06	5.410819e-05	
23.216542	5.332491e-06	5.975523e-06	2.894427e-06	5.446745e-05	
23.217542	5.293269e-06	6.049416e-06	2.876652e-06	5.486021e-05	
23.218543	5.256273e-06	6.126666e-06	2.858793e-06	5.528739e-05	
23.219543	5.221632e-06	6.207326e-06	2.840890e-06	5.574993e-05	
23.220543	5.189476e-06	6.291448e-06	2.822982e-06	5.624876e-05	
23.221544	5.159932e-06	6.379085e-06	2.805109e-06	5.678480e-05	
23.222544	5.133129e-06	6.470289e-06	2.787309e-06	5.735900e-05	
23.223544	5.109197e-06	6.565113e-06	2.769622e-06	5.797227e-05	
23.224545	5.088263e-06	6.663609e-06	2.752087e-06	5.862556e-05	
23.225545	5.070423e-06	6.765775e-06	2.734738e-06	5.931919e-05	
23.226545	5.055643e-06	6.871414e-06	2.717587e-06	6.005134e-05	
23.227546	5.043866e-06	6.980288e-06	2.700640e-06	6.081973e-05	
23.228546	5.035031e-06	7.092156e-06	2.683905e-06	6.162207e-05	
23.229546	5.029080e-06	7.206780e-06	2.667388e-06	6.245607e-05	
23.230547	5.025952e-06	7.323920e-06	2.651097e-06	6.331944e-05	
23.231547	5.025590e-06	7.443336e-06	2.635038e-06	6.420990e-05	
23.232547	5.027934e-06	7.564790e-06	2.619218e-06	6.512516e-05	
23.233547	5.032924e-06	7.688041e-06	2.603646e-06	6.606293e-05	
23.234548	5.040501e-06	7.812850e-06	2.588327e-06	6.702092e-05	
23.235548	5.050607e-06	7.938979e-06	2.573268e-06	6.799684e-05	
23.236548	5.063181e-06	8.066187e-06	2.558477e-06	6.898841e-05	
23.237549	5.078165e-06	8.194235e-06	2.543960e-06	6.999333e-05	
23.238549	5.095499e-06	8.322884e-06	2.529725e-06	7.100932e-05	
23.239549	5.115124e-06	8.451894e-06	2.515778e-06	7.203410e-05	
23.240550	5.136982e-06	8.581026e-06	2.502127e-06	7.306536e-05	
23.241550	5.161011e-06	8.710041e-06	2.488779e-06	7.410084e-05	
23.242550	5.187155e-06	8.838698e-06	2.475740e-06	7.513823e-05	
23.243551	5.215352e-06	8.966760e-06	2.463018e-06	7.617524e-05	
23.244551	5.245545e-06	9.093986e-06	2.450619e-06	7.720960e-05	
23.245551	5.277673e-06	9.220136e-06	2.438550e-06	7.823901e-05	
23.246552	5.311678e-06	9.344973e-06	2.426820e-06	7.926119e-05	
23.247552	5.347500e-06	9.468255e-06	2.415434e-06	8.027384e-05	
23.248552	5.385080e-06	9.589744e-06	2.404399e-06	8.127468e-05	
23.249553	5.424359e-06	9.709200e-06	2.393723e-06	8.226142e-05	
23.250553	5.465277e-06	9.826384e-06	2.383413e-06	8.323178e-05	
23.251553	5.507776e-06	9.941057e-06	2.373475e-06	8.418346e-05	
23.252554	5.551796e-06	1.005298e-05	2.363916e-06	8.511417e-05	
23.253554	5.597278e-06	1.016191e-05	2.354745e-06	8.602163e-05	
23.254554	5.644162e-06	1.026761e-05	2.345966e-06	8.690356e-05	
23.255555	5.692390e-06	1.036984e-05	2.337589e-06	8.775765e-05	
23.256555	5.741902e-06	1.046837e-05	2.329619e-06	8.858163e-05	
23.257555	5.792639e-06	1.056295e-05	2.322064e-06	8.937321e-05	
23.258556	5.844541e-06	1.065333e-05	2.314930e-06	9.013009e-05	
23.259556	5.897550e-06	1.073930e-05	2.308225e-06	9.084999e-05	
23.260556	5.951607e-06	1.082059e-05	2.301955e-06	9.153063e-05	
23.261557	6.006651e-06	1.089698e-05	2.296128e-06	9.216971e-05	
23.262557	6.062625e-06	1.096823e-05	2.290751e-06	9.276494e-05	
23.263557	6.119467e-06	1.103409e-05	2.285830e-06	9.331404e-05	
23.264558	6.177120e-06	1.109433e-05	2.281373e-06	9.381472e-05	
23.265558	6.235525e-06	1.114870e-05	2.277386e-06	9.426470e-05	
23.266558	6.294621e-06	1.119697e-05	2.273877e-06	9.466167e-05	
23.267559	6.354349e-06	1.123890e-05	2.270853e-06	9.500337e-05	
23.268559	6.414651e-06	1.127425e-05	2.268320e-06	9.528749e-05	
23.269559	6.475468e-06	1.130278e-05	2.266286e-06	9.551175e-05	
23.270560	6.536739e-06	1.132425e-05	2.264758e-06	9.567386e-05	
23.271560	6.598406e-06	1.133842e-05	2.263742e-06	9.577153e-05	
23.272560	6.660409e-06	1.134504e-05	2.263246e-06	9.580248e-05	
23.273561	6.722690e-06	1.134390e-05	2.263276e-06	9.576442e-05	
23.274561	6.785188e-06	1.133473e-05	2.263840e-06	9.565505e-05	
23.275561	6.847840e-06	1.131741e-05	2.264939e-06	9.547302e-05	
23.276561	6.910558e-06	1.129217e-05	2.266553e-06	9.522008e-05	
23.277562	6.973255e-06	1.125932e-05	2.268659e-06	9.489865e-05	
23.278562	7.035840e-06	1.121916e-05	2.271233e-06	9.451113e-05	
23.279562	7.098223e-06	1.117200e-05	2.274252e-06	9.405995e-05	
23.280563	7.160315e-06	1.111813e-05	2.277693e-06	9.354751e-05	
23.281563	7.222026e-06	1.105788e-05	2.281530e-06	9.297624e-05	
23.282563	7.283267e-06	1.099154e-05	2.285743e-06	9.234855e-05	
23.283564	7.343948e-06	1.091942e-05	2.290305e-06	9.166684e-05	
23.284564	7.403979e-06	1.084183e-05	2.295195e-06	9.093354e-05	
23.285564	7.463271e-06	1.075907e-05	2.300388e-06	9.015106e-05	
23.286565	7.521734e-06	1.067145e-05	2.305862e-06	8.932182e-05	
23.287565	7.579279e-06	1.057927e-05	2.311592e-06	8.844822e-05	
23.288565	7.635815e-06	1.048284e-05	2.317554e-06	8.753269e-05	
23.289566	7.691253e-06	1.038247e-05	2.323726e-06	8.657763e-05	
23.290566	7.745504e-06	1.027846e-05	2.330084e-06	8.558547e-05	
23.291566	7.798477e-06	1.017111e-05	2.336605e-06	8.455861e-05	
23.292567	7.850084e-06	1.006074e-05	2.343264e-06	8.349947e-05	
23.293567	7.900235e-06	9.947650e-06	2.350038e-06	8.241047e-05	
23.294567	7.948839e-06	9.832142e-06	2.356904e-06	8.129402e-05	
23.295568	7.995808e-06	9.714524e-06	2.363838e-06	8.015253e-05	
23.296568	8.041051e-06	9.595103e-06	2.370817e-06	7.898841e-05	
23.297568	8.084479e-06	9.474184e-06	2.377817e-06	7.780409e-05	
23.298569	8.126003e-06	9.352073e-06	2.384814e-06	7.660198e-05	
23.299569	8.165533e-06	9.229076e-06	2.391785e-06	7.538449e-05	
23.300569	8.202978e-06	9.105498e-06	2.398707e-06	7.415403e-05	
23.301570	8.238250e-06	8.981647e-06	2.405556e-06	7.291303e-05	
23.302570	8.271259e-06	8.857827e-06	2.412308e-06	7.166388e-05	
23.303570	8.301915e-06	8.734344e-06	2.418940e-06	7.040902e-05	
23.304571	8.330129e-06	8.611504e-06	2.425428e-06	6.915085e-05	
23.305571	8.355811e-06	8.489614e-06	2.431749e-06	6.789179e-05	
23.306571	8.378871e-06	8.368978e-06	2.437880e-06	6.663425e-05	
23.307572	8.399219e-06	8.249903e-06	2.443796e-06	6.538064e-05	
23.308572	8.416767e-06	8.132695e-06	2.449474e-06	6.413339e-05	
23.309572	8.431424e-06	8.017659e-06	2.454891e-06	6.289490e-05	
23.310573	8.443101e-06	7.905101e-06	2.460022e-06	6.166759e-05	
23.311573	8.451707e-06	7.795327e-06	2.464846e-06	6.045388e-05	
23.312573	8.457155e-06	7.688644e-06	2.469337e-06	5.925617e-05	
23.313574	8.459353e-06	7.585356e-06	2.473473e-06	5.807688e-05	
23.314574	8.458212e-06	7.485770e-06	2.477230e-06	5.691843e-05	
23.315574	8.453643e-06	7.390191e-06	2.480584e-06	5.578324e-05	
23.316574	8.445556e-06	7.298926e-06	2.483512e-06	5.467371e-05	
23.317575	8.433861e-06	7.212280e-06	2.485990e-06	5.359225e-05	
23.318575	8.418469e-06	7.130559e-06	2.487996e-06	5.254130e-05	
23.319575	8.399290e-06	7.054069e-06	2.489504e-06	5.152325e-05	
23.320576	8.376234e-06	6.983116e-06	2.490492e-06	5.054053e-05	
23.321576	8.349211e-06	6.918006e-06	2.490936e-06	4.959554e-05	
23.322576	8.318133e-06	6.859044e-06	2.490813e-06	4.869070e-05	
23.323577	8.282910e-06	6.806536e-06	2.490099e-06	4.782843e-05	
23.324577	8.243451e-06	6.760788e-06	2.488771e-06	4.701115e-05	
23.325577	8.199717e-06	6.722000e-06	2.486817e-06	4.624052e-05	
23.326578	8.151827e-06	6.690031e-06	2.484268e-06	4.551590e-05	
23.327578	8.099934e-06	6.664669e-06	2.481161e-06	4.483615e-05	
23.328578	8.044189e-06	6.645704e-06	2.477536e-06	4.420012e-05	
23.329579	7.984743e-06	6.632927e-06	2.473431e-06	4.360669e-05	
23.330579	7.921749e-06	6.626126e-06	2.468883e-06	4.305472e-05	
23.331579	7.855359e-06	6.625091e-06	2.463930e-06	4.254307e-05	
23.332580	7.785723e-06	6.629611e-06	2.458612e-06	4.207061e-05	
23.333580	7.712994e-06	6.639478e-06	2.452966e-06	4.163620e-05	
23.334580	7.637324e-06	6.654479e-06	2.447030e-06	4.123870e-05	
23.335581	7.558864e-06	6.674404e-06	2.440843e-06	4.087699e-05	
23.336581	7.477766e-06	6.699044e-06	2.434443e-06	4.054992e-05	
23.337581	7.394182e-06	6.728188e-06	2.427868e-06	4.025636e-05	
23.338582	7.308264e-06	6.761624e-06	2.421156e-06	3.999517e-05	
23.339582	7.220163e-06	6.799144e-06	2.414345e-06	3.976522e-05	
23.340582	7.130031e-06	6.840537e-06	2.407475e-06	3.956537e-05	
23.341583	7.038021e-06	6.885591e-06	2.400582e-06	3.939449e-05	
23.342583	6.944283e-06	6.934098e-06	2.393705e-06	3.925143e-05	
23.343583	6.848969e-06	6.985845e-06	2.386883e-06	3.913507e-05	
23.344584	6.752232e-06	7.040624e-06	2.380154e-06	3.904427e-05	
23.345584	6.654222e-06	7.098223e-06	2.373555e-06	3.897789e-05	
23.346584	6.555093e-06	7.158432e-06	2.367125e-06	3.893480e-05	
23.347585	6.454994e-06	7.221042e-06	2.360902e-06	3.891386e-05	
23.348585	6.354080e-06	7.285840e-06	2.354925e-06	3.891394e-05	
23.349585	6.252500e-06	7.352617e-06	2.349232e-06	3.893390e-05	
23.350586	6.150407e-06	7.421163e-06	2.343860e-06	3.897260e-05	
23.351586	6.047952e-06	7.491268e-06	2.338848e-06	3.902890e-05	
23.352586	5.945288e-06	7.562720e-06	2.334235e-06	3.910169e-05	
23.353587	5.842566e-06	7.635309e-06	2.330058e-06	3.918980e-05	
23.354587	5.739938e-06	7.708825e-06	2.326356e-06	3.929212e-05	
23.355587	5.637556e-06	7.783058e-06	2.323167e-06	3.940751e-05	
23.356588	5.535571e-06	7.857797e-06	2.320529e-06	3.953482e-05	
23.357588	5.434135e-06	7.932832e-06	2.318481e-06	3.967293e-05	
23.358588	5.333400e-06	8.007952e-06	2.317060e-06	3.982070e-05	
23.359588	5.233517e-06	8.082947e-06	2.316305e-06	3.997699e-05	
23.360589	5.134640e-06	8.157607e-06	2.316254e-06	4.014067e-05	
23.361589	5.036918e-06	8.231721e-06	2.316945e-06	4.031060e-05	
23.362589	4.940504e-06	8.305079e-06	2.318416e-06	4.048564e-05	
23.363590	4.845550e-06	8.377470e-06	2.320706e-06	4.066466e-05	
23.364590	4.752208e-06	8.448684e-06	2.323854e-06	4.084653e-05	
23.365590	4.660629e-06	8.518511e-06	2.327896e-06	4.103011e-05	
23.366591	4.570965e-06	8.586740e-06	2.332871e-06	4.121426e-05	
23.367591	4.483367e-06	8.653161e-06	2.338818e-06	4.139784e-05	
23.368591	4.397989e-06	8.717563e-06	2.345775e-06	4.157973e-05	
23.369592	4.314980e-06	8.779736e-06	2.353780e-06	4.175878e-05	
23.370592	4.234494e-06	8.839470e-06	2.362871e-06	4.193386e-05	
23.371592	4.156682e-06	8.896553e-06	2.373086e-06	4.210384e-05	
23.372593	4.081695e-06	8.950777e-06	2.384464e-06	4.226757e-05	
23.373593	4.009685e-06	9.001930e-06	2.397042e-06	4.242393e-05	
23.374593	3.940805e-06	9.049802e-06	2.410860e-06	4.257177e-05	
23.375594	3.875213e-06	9.094240e-06	2.425941e-06	4.271017e-05	
23.376594	3.813090e-06	9.135265e-06	2.442265e-06	4.283881e-05	
23.377594	3.754622e-06	9.172932e-06	2.459804e-06	4.295750e-05	
23.378595	3.699994e-06	9.207295e-06	2.478530e-06	4.306605e-05	
23.379595	3.649392e-06	9.238410e-06	2.498415e-06	4.316427e-05	
23.380595	3.603001e-06	9.266332e-06	2.519432e-06	4.325197e-05	
23.381596	3.561007e-06	9.291115e-06	2.541551e-06	4.332896e-05	
23.382596	3.523594e-06	9.312815e-06	2.564745e-06	4.339504e-05	
23.383596	3.490949e-06	9.331485e-06	2.588986e-06	4.345002e-05	
23.384597	3.463257e-06	9.347181e-06	2.614246e-06	4.349372e-05	
23.385597	3.440703e-06	9.359959e-06	2.640496e-06	4.352593e-05	
23.386597	3.423473e-06	9.369872e-06	2.667709e-06	4.354647e-05	
23.387598	3.411752e-06	9.376975e-06	2.695857e-06	4.355515e-05	
23.388598	3.405726e-06	9.381324e-06	2.724911e-06	4.355178e-05	
23.389598	3.405580e-06	9.382974e-06	2.754843e-06	4.353616e-05	
23.390599	3.411499e-06	9.381978e-06	2.785626e-06	4.350810e-05	
23.391599	3.423669e-06	9.378393e-06	2.817231e-06	4.346742e-05	
23.392599	3.442276e-06	9.372272e-06	2.849630e-06	4.341391e-05	
23.393600	3.467505e-06	9.363671e-06	2.882795e-06	4.334739e-05	
23.394600	3.499540e-06	9.352645e-06	2.916698e-06	4.326767e-05	
23.395600	3.538569e-06	9.339249e-06	2.951311e-06	4.317455e-05	
23.396601	3.584775e-06	9.323536e-06	2.986606e-06	4.306785e-05	
23.397601	3.638346e-06	9.305563e-06	3.022555e-06	4.294737e-05	
23.398601	3.699465e-06	9.285385e-06	3.059130e-06	4.281292e-05	
23.399601	3.768319e-06	9.263055e-06	3.096302e-06	4.266431e-05	
23.400602	3.845092e-06	9.238629e-06	3.134044e-06	4.250134e-05	
23.401602	3.929971e-06	9.212161e-06	3.172327e-06	4.232384e-05	
23.402602	4.023141e-06	9.183708e-06	3.211124e-06	4.213160e-05	
23.403603	4.124787e-06	9.153322e-06	3.250407e-06	4.192443e-05	
23.404603	4.235095e-06	9.121060e-06	3.290147e-06	4.170214e-05	
23.405603	4.354250e-06	9.086976e-06	3.330316e-06	4.146454e-05	
23.406604	4.482437e-06	9.051126e-06	3.370886e-06	4.121144e-05	
23.407604	4.619843e-06	9.013563e-06	3.411829e-06	4.094265e-05	
23.408604	4.766651e-06	8.974343e-06	3.453118e-06	4.065798e-05	
23.409605	4.923049e-06	8.933520e-06	3.494723e-06	4.035723e-05	
23.410605	5.089221e-06	8.891150e-06	3.536617e-06	4.004021e-05	
23.411605	5.265353e-06	8.847288e-06	3.578772e-06	3.970673e-05	
23.412606	5.451630e-06	8.801987e-06	3.621160e-06	3.935660e-05	
23.413606	5.648238e-06	8.755304e-06	3.663753e-06	3.898963e-05	
23.414606	5.855361e-06	8.707293e-06	3.706522e-06	3.860563e-05	
23.415607	6.073187e-06	8.658009e-06	3.749440e-06	3.820441e-05	
23.416607	6.301899e-06	8.607506e-06	3.792479e-06	3.778576e-05	
23.417607	6.541683e-06	8.555840e-06	3.835610e-06	3.734951e-05	
23.418608	6.792726e-06	8.503065e-06	3.878805e-06	3.689546e-05	
23.419608	7.055211e-06	8.449237e-06	3.922037e-06	3.642342e-05	
23.420608	7.329326e-06	8.394410e-06	3.965276e-06	3.593320e-05	
23.421609	7.615255e-06	8.338639e-06	4.008496e-06	3.542460e-05	
23.422609	7.913183e-06	8.281978e-06	4.051668e-06	3.489744e-05	
23.423609	8.223296e-06	8.224484e-06	4.094764e-06	3.435153e-05	
23.424610	8.545780e-06	8.166210e-06	4.137756e-06	3.378666e-05	
23.425610	8.880599e-06	8.107216e-06	4.180613e-06	3.320294e-05	
23.426610	9.227077e-06	8.047571e-06	4.223290e-06	3.260129e-05	
23.427611	9.584419e-06	7.987347e-06	4.265743e-06	3.198279e-05	
23.428611	9.951830e-06	7.926617e-06	4.307927e-06	3.134852e-05	
23.429611	1.032852e-05	7.865453e-06	4.349797e-06	3.069955e-05	
23.430612	1.071368e-05	7.803926e-06	4.391308e-06	3.003697e-05	
23.431612	1.110654e-05	7.742109e-06	4.432415e-06	2.936184e-05	
23.432612	1.150628e-05	7.680075e-06	4.473072e-06	2.867526e-05	
23.433613	1.191213e-05	7.617894e-06	4.513236e-06	2.797829e-05	
23.434613	1.232327e-05	7.555639e-06	4.552860e-06	2.727201e-05	
23.435613	1.273893e-05	7.493383e-06	4.591899e-06	2.655751e-05	
23.436614	1.315829e-05	7.431197e-06	4.630310e-06	2.583585e-05	
23.437614	1.358058e-05	7.369153e-06	4.668046e-06	2.510812e-05	
23.438614	1.400499e-05	7.307324e-06	4.705062e-06	2.437539e-05	
23.439615	1.443074e-05	7.245781e-06	4.741314e-06	2.363875e-05	
23.440615	1.485702e-05	7.184597e-06	4.776756e-06	2.289927e-05	
23.441615	1.528304e-05	7.123844e-06	4.811344e-06	2.215802e-05	
23.442615	1.570801e-05	7.063593e-06	4.845032e-06	2.141609e-05	
23.443616	1.613113e-05	7.003918e-06	4.877775e-06	2.067455e-05	
23.444616	1.655161e-05	6.944889e-06	4.909529e-06	1.993448e-05	
23.445616	1.696866e-05	6.886580e-06	4.940247e-06	1.919697e-05	
23.446617	1.738147e-05	6.829062e-06	4.969886e-06	1.846307e-05	
23.447617	1.778926e-05	6.772406e-06	4.998400e-06	1.773389e-05	
23.448617	1.819123e-05	6.716687e-06	5.025745e-06	1.701048e-05	
23.449618	1.858659e-05	6.661975e-06	5.051874e-06	1.629393e-05	
23.450618	1.897454e-05	6.608342e-06	5.076743e-06	1.558532e-05	
23.451618	1.935429e-05	6.555861e-06	5.100307e-06	1.488573e-05	
